Surface Profile             
x       y           
[m]     [m]         
0  -3.434032e-009            
1.9993336e-007  -4.6222963e-009            
3.9986671e-007  -5.5221131e-009            
5.9980007e-007  -6.4050806e-009            
7.9973342e-007  -6.8845928e-009            
9.9966678e-007  -7.6645698e-009            
1.1996001e-006  -8.4353436e-009            
1.3995335e-006  -9.3054703e-009            
1.5994668e-006  -9.9974139e-009            
1.7994002e-006  -1.087591e-008            
1.9993336e-006  -1.204035e-008            
2.1992669e-006  -1.3410818e-008            
2.3992003e-006  -1.4628942e-008            
2.5991336e-006  -1.5732506e-008            
2.799067e-006  -1.7107958e-008            
2.9990003e-006  -1.8570496e-008            
3.1989337e-006  -2.0014179e-008            
3.398867e-006  -2.1474656e-008            
3.5988004e-006  -2.2759101e-008            
3.7987338e-006  -2.4400113e-008            
3.9986671e-006  -2.6096984e-008            
4.1986005e-006  -2.7760647e-008            
4.3985338e-006  -2.9300851e-008            
4.5984672e-006  -3.0856404e-008            
4.7984005e-006  -3.2585737e-008            
4.9983339e-006  -3.4421936e-008            
5.1982672e-006  -3.6103428e-008            
5.3982006e-006  -3.7587223e-008            
5.598134e-006  -3.9473234e-008            
5.7980673e-006  -4.1201861e-008            
5.9980007e-006  -4.292062e-008            
6.197934e-006  -4.4472728e-008            
6.3978674e-006  -4.6181562e-008            
6.5978007e-006  -4.7912316e-008            
6.7977341e-006  -4.9753776e-008            
6.9976674e-006  -5.1213583e-008            
7.1976008e-006  -5.2864118e-008            
7.3975342e-006  -5.460061e-008            
7.5974675e-006  -5.6335668e-008            
7.7974009e-006  -5.799665e-008            
7.9973342e-006  -5.9654164e-008            
8.1972676e-006  -6.1485969e-008            
8.3972009e-006  -6.3181471e-008            
8.5971343e-006  -6.4960326e-008            
8.7970676e-006  -6.6564319e-008            
8.997001e-006  -6.8332599e-008            
9.1969344e-006  -7.0392006e-008            
9.3968677e-006  -7.2053509e-008            
9.5968011e-006  -7.3924624e-008            
9.7967344e-006  -7.5742819e-008            
9.9966678e-006  -7.7689221e-008            
1.0196601e-005  -7.9764048e-008            
1.0396534e-005  -8.1500515e-008            
1.0596468e-005  -8.3291114e-008            
1.0796401e-005  -8.5256143e-008            
1.0996335e-005  -8.7226983e-008            
1.1196268e-005  -8.9055289e-008            
1.1396201e-005  -9.0869864e-008            
1.1596135e-005  -9.266802e-008            
1.1796068e-005  -9.4723275e-008            
1.1996001e-005  -9.6657462e-008            
1.2195935e-005  -9.8585339e-008            
1.2395868e-005  -1.0046809e-007            
1.2595801e-005  -1.0250308e-007            
1.2795735e-005  -1.0450463e-007            
1.2995668e-005  -1.064719e-007            
1.3195601e-005  -1.0841731e-007            
1.3395535e-005  -1.1045677e-007            
1.3595468e-005  -1.1268524e-007            
1.3795402e-005  -1.1484344e-007            
1.3995335e-005  -1.1680306e-007            
1.4195268e-005  -1.1867714e-007            
1.4395202e-005  -1.2071508e-007            
1.4595135e-005  -1.2288529e-007            
1.4795068e-005  -1.2493972e-007            
1.4995002e-005  -1.2696742e-007            
1.5194935e-005  -1.288408e-007            
1.5394868e-005  -1.3091205e-007            
1.5594802e-005  -1.3272644e-007            
1.5794735e-005  -1.3485362e-007            
1.5994668e-005  -1.3689046e-007            
1.6194602e-005  -1.384956e-007            
1.6394535e-005  -1.4042662e-007            
1.6594469e-005  -1.4224776e-007            
1.6794402e-005  -1.4408252e-007            
1.6994335e-005  -1.4606178e-007            
1.7194269e-005  -1.479895e-007            
1.7394202e-005  -1.4979376e-007            
1.7594135e-005  -1.5178459e-007            
1.7794069e-005  -1.5361826e-007            
1.7994002e-005  -1.5567177e-007            
1.8193935e-005  -1.5776045e-007            
1.8393869e-005  -1.597554e-007            
1.8593802e-005  -1.6182155e-007            
1.8793735e-005  -1.6377481e-007            
1.8993669e-005  -1.6575412e-007            
1.9193602e-005  -1.6776409e-007            
1.9393535e-005  -1.6979691e-007            
1.9593469e-005  -1.7194329e-007            
1.9793402e-005  -1.7394468e-007            
1.9993336e-005  -1.760136e-007            
2.0193269e-005  -1.7788335e-007            
2.0393202e-005  -1.7992529e-007            
2.0593136e-005  -1.8193335e-007            
2.0793069e-005  -1.8401711e-007            
2.0993002e-005  -1.8578098e-007            
2.1192936e-005  -1.8773337e-007            
2.1392869e-005  -1.8984371e-007            
2.1592802e-005  -1.9190512e-007            
2.1792736e-005  -1.940473e-007            
2.1992669e-005  -1.9597696e-007            
2.2192602e-005  -1.9796807e-007            
2.2392536e-005  -2.0017674e-007            
2.2592469e-005  -2.0237713e-007            
2.2792403e-005  -2.0459409e-007            
2.2992336e-005  -2.0667137e-007            
2.3192269e-005  -2.0883107e-007            
2.3392203e-005  -2.1105166e-007            
2.3592136e-005  -2.1333784e-007            
2.3792069e-005  -2.15518e-007            
2.3992003e-005  -2.1776336e-007            
2.4191936e-005  -2.2010918e-007            
2.4391869e-005  -2.2254469e-007            
2.4591803e-005  -2.2474645e-007            
2.4791736e-005  -2.2694579e-007            
2.4991669e-005  -2.2927638e-007            
2.5191603e-005  -2.3161446e-007            
2.5391536e-005  -2.3397803e-007            
2.5591469e-005  -2.3605787e-007            
2.5791403e-005  -2.3814536e-007            
2.5991336e-005  -2.4038884e-007            
2.619127e-005  -2.4255007e-007            
2.6391203e-005  -2.4451528e-007            
2.6591136e-005  -2.4659592e-007            
2.679107e-005  -2.4868781e-007            
2.6991003e-005  -2.5106315e-007            
2.7190936e-005  -2.532559e-007            
2.739087e-005  -2.553188e-007            
2.7590803e-005  -2.5748816e-007            
2.7790736e-005  -2.5962952e-007            
2.799067e-005  -2.6183376e-007            
2.8190603e-005  -2.6366299e-007            
2.8390536e-005  -2.6569417e-007            
2.859047e-005  -2.6773328e-007            
2.8790403e-005  -2.6980611e-007            
2.8990337e-005  -2.715509e-007            
2.919027e-005  -2.733478e-007            
2.9390203e-005  -2.7524003e-007            
2.9590137e-005  -2.7733431e-007            
2.979007e-005  -2.7921762e-007            
2.9990003e-005  -2.8085949e-007            
3.0189937e-005  -2.8261997e-007            
3.038987e-005  -2.8446574e-007            
3.0589803e-005  -2.8617039e-007            
3.0789737e-005  -2.8784769e-007            
3.098967e-005  -2.8938619e-007            
3.1189603e-005  -2.9115445e-007            
3.1389537e-005  -2.9289729e-007            
3.158947e-005  -2.9434411e-007            
3.1789404e-005  -2.9589929e-007            
3.1989337e-005  -2.9762925e-007            
3.218927e-005  -2.9936711e-007            
3.2389204e-005  -3.0096414e-007            
3.2589137e-005  -3.0239328e-007            
3.278907e-005  -3.0409394e-007            
3.2989004e-005  -3.0575896e-007            
3.3188937e-005  -3.0750818e-007            
3.338887e-005  -3.0898363e-007            
3.3588804e-005  -3.1043384e-007            
3.3788737e-005  -3.1193243e-007            
3.398867e-005  -3.1341133e-007            
3.4188604e-005  -3.1482838e-007            
3.4388537e-005  -3.163443e-007            
3.458847e-005  -3.1776434e-007            
3.4788404e-005  -3.1920026e-007            
3.4988337e-005  -3.2044144e-007            
3.5188271e-005  -3.218439e-007            
3.5388204e-005  -3.230293e-007            
3.5588137e-005  -3.2429861e-007            
3.5788071e-005  -3.2553725e-007            
3.5988004e-005  -3.2662474e-007            
3.6187937e-005  -3.2755607e-007            
3.6387871e-005  -3.2857178e-007            
3.6587804e-005  -3.2965685e-007            
3.6787737e-005  -3.3071696e-007            
3.6987671e-005  -3.3179318e-007            
3.7187604e-005  -3.3280354e-007            
3.7387537e-005  -3.3393811e-007            
3.7587471e-005  -3.3483969e-007            
3.7787404e-005  -3.3580447e-007            
3.7987338e-005  -3.3679623e-007            
3.8187271e-005  -3.3783335e-007            
3.8387204e-005  -3.3866528e-007            
3.8587138e-005  -3.3965817e-007            
3.8787071e-005  -3.4051723e-007            
3.8987004e-005  -3.4137362e-007            
3.9186938e-005  -3.4218301e-007            
3.9386871e-005  -3.4282878e-007            
3.9586804e-005  -3.4360343e-007            
3.9786738e-005  -3.4448155e-007            
3.9986671e-005  -3.4506034e-007            
4.0186604e-005  -3.4574529e-007            
4.0386538e-005  -3.4627926e-007            
4.0586471e-005  -3.4701967e-007            
4.0786405e-005  -3.4753879e-007            
4.0986338e-005  -3.480976e-007            
4.1186271e-005  -3.4878632e-007            
4.1386205e-005  -3.4942421e-007            
4.1586138e-005  -3.5005327e-007            
4.1786071e-005  -3.5068631e-007            
4.1986005e-005  -3.511522e-007            
4.2185938e-005  -3.5158496e-007            
4.2385871e-005  -3.5210866e-007            
4.2585805e-005  -3.5272618e-007            
4.2785738e-005  -3.5313879e-007            
4.2985671e-005  -3.533184e-007            
4.3185605e-005  -3.5385292e-007            
4.3385538e-005  -3.5443796e-007            
4.3585471e-005  -3.5485716e-007            
4.3785405e-005  -3.5515634e-007            
4.3985338e-005  -3.5556476e-007            
4.4185272e-005  -3.5612264e-007            
4.4385205e-005  -3.5690981e-007            
4.4585138e-005  -3.5725047e-007            
4.4785072e-005  -3.5744338e-007            
4.4985005e-005  -3.5778695e-007            
4.5184938e-005  -3.5831164e-007            
4.5384872e-005  -3.5878e-007            
4.5584805e-005  -3.5901306e-007            
4.5784738e-005  -3.5920405e-007            
4.5984672e-005  -3.5959411e-007            
4.6184605e-005  -3.597963e-007            
4.6384538e-005  -3.5987955e-007            
4.6584472e-005  -3.6007586e-007            
4.6784405e-005  -3.6061899e-007            
4.6984339e-005  -3.6106585e-007            
4.7184272e-005  -3.612219e-007            
4.7384205e-005  -3.610924e-007            
4.7584139e-005  -3.6114974e-007            
4.7784072e-005  -3.6139304e-007            
4.7984005e-005  -3.614081e-007            
4.8183939e-005  -3.6127635e-007            
4.8383872e-005  -3.610319e-007            
4.8583805e-005  -3.6092922e-007            
4.8783739e-005  -3.6082748e-007            
4.8983672e-005  -3.6047932e-007            
4.9183605e-005  -3.6012241e-007            
4.9383539e-005  -3.5987476e-007            
4.9583472e-005  -3.5946528e-007            
4.9783406e-005  -3.5866628e-007            
4.9983339e-005  -3.5798371e-007            
5.0183272e-005  -3.574866e-007            
5.0383206e-005  -3.569546e-007            
5.0583139e-005  -3.5644544e-007            
5.0783072e-005  -3.5551702e-007            
5.0983006e-005  -3.5455984e-007            
5.1182939e-005  -3.5366252e-007            
5.1382872e-005  -3.5301104e-007            
5.1582806e-005  -3.5204706e-007            
5.1782739e-005  -3.511088e-007            
5.1982672e-005  -3.4965581e-007            
5.2182606e-005  -3.4860045e-007            
5.2382539e-005  -3.4745871e-007            
5.2582472e-005  -3.4611515e-007            
5.2782406e-005  -3.4466448e-007            
5.2982339e-005  -3.431651e-007            
5.3182273e-005  -3.4178474e-007            
5.3382206e-005  -3.4043839e-007            
5.3582139e-005  -3.3882742e-007            
5.3782073e-005  -3.3752451e-007            
5.3982006e-005  -3.3629006e-007            
5.4181939e-005  -3.3499305e-007            
5.4381873e-005  -3.3345651e-007            
5.4581806e-005  -3.3183425e-007            
5.4781739e-005  -3.3042745e-007            
5.4981673e-005  -3.2916282e-007            
5.5181606e-005  -3.2770581e-007            
5.5381539e-005  -3.2617097e-007            
5.5581473e-005  -3.2441106e-007            
5.5781406e-005  -3.2287377e-007            
5.598134e-005  -3.2144706e-007            
5.6181273e-005  -3.1987726e-007            
5.6381206e-005  -3.1820644e-007            
5.658114e-005  -3.1642369e-007            
5.6781073e-005  -3.1470718e-007            
5.6981006e-005  -3.1287471e-007            
5.718094e-005  -3.1108564e-007            
5.7380873e-005  -3.0916053e-007            
5.7580806e-005  -3.0733491e-007            
5.778074e-005  -3.0541488e-007            
5.7980673e-005  -3.0363732e-007            
5.8180606e-005  -3.0161216e-007            
5.838054e-005  -2.9970221e-007            
5.8580473e-005  -2.9808e-007            
5.8780407e-005  -2.9618468e-007            
5.898034e-005  -2.942732e-007            
5.9180273e-005  -2.9224646e-007            
5.9380207e-005  -2.901916e-007            
5.958014e-005  -2.8846741e-007            
5.9780073e-005  -2.8664617e-007            
5.9980007e-005  -2.8478391e-007            
6.017994e-005  -2.8284824e-007            
6.0379873e-005  -2.8095939e-007            
6.0579807e-005  -2.7909727e-007            
6.077974e-005  -2.7695216e-007            
6.0979673e-005  -2.7464049e-007            
6.1179607e-005  -2.7272448e-007            
6.137954e-005  -2.7064418e-007            
6.1579473e-005  -2.684047e-007            
6.1779407e-005  -2.660348e-007            
6.197934e-005  -2.6370783e-007            
6.2179274e-005  -2.616352e-007            
6.2379207e-005  -2.5935963e-007            
6.257914e-005  -2.5718766e-007            
6.2779074e-005  -2.5502727e-007            
6.2979007e-005  -2.5286736e-007            
6.317894e-005  -2.5052097e-007            
6.3378874e-005  -2.4816825e-007            
6.3578807e-005  -2.4571757e-007            
6.377874e-005  -2.4334383e-007            
6.3978674e-005  -2.409847e-007            
6.4178607e-005  -2.3858343e-007            
6.437854e-005  -2.3613342e-007            
6.4578474e-005  -2.3367044e-007            
6.4778407e-005  -2.31363e-007            
6.4978341e-005  -2.2914223e-007            
6.5178274e-005  -2.2680413e-007            
6.5378207e-005  -2.242818e-007            
6.5578141e-005  -2.2163956e-007            
6.5778074e-005  -2.1933046e-007            
6.5978007e-005  -2.1685513e-007            
6.6177941e-005  -2.1448505e-007            
6.6377874e-005  -2.1183981e-007            
6.6577807e-005  -2.0931703e-007            
6.6777741e-005  -2.067723e-007            
6.6977674e-005  -2.0424654e-007            
6.7177607e-005  -2.0155791e-007            
6.7377541e-005  -1.9888979e-007            
6.7577474e-005  -1.9655722e-007            
6.7777407e-005  -1.940373e-007            
6.7977341e-005  -1.9140875e-007            
6.8177274e-005  -1.8857334e-007            
6.8377208e-005  -1.8606454e-007            
6.8577141e-005  -1.8373654e-007            
6.8777074e-005  -1.8130896e-007            
6.8977008e-005  -1.7877515e-007            
6.9176941e-005  -1.7634916e-007            
6.9376874e-005  -1.7399596e-007            
6.9576808e-005  -1.7178352e-007            
6.9776741e-005  -1.6932585e-007            
6.9976674e-005  -1.6689086e-007            
7.0176608e-005  -1.6446804e-007            
7.0376541e-005  -1.6201468e-007            
7.0576474e-005  -1.5967021e-007            
7.0776408e-005  -1.5717831e-007            
7.0976341e-005  -1.5468347e-007            
7.1176275e-005  -1.5229986e-007            
7.1376208e-005  -1.4970408e-007            
7.1576141e-005  -1.471669e-007            
7.1776075e-005  -1.4469681e-007            
7.1976008e-005  -1.4221435e-007            
7.2175941e-005  -1.3991853e-007            
7.2375875e-005  -1.3731543e-007            
7.2575808e-005  -1.3462368e-007            
7.2775741e-005  -1.3206377e-007            
7.2975675e-005  -1.2955738e-007            
7.3175608e-005  -1.2715184e-007            
7.3375541e-005  -1.2456863e-007            
7.3575475e-005  -1.2187401e-007            
7.3775408e-005  -1.1944445e-007            
7.3975342e-005  -1.171634e-007            
7.4175275e-005  -1.1489346e-007            
7.4375208e-005  -1.1275967e-007            
7.4575142e-005  -1.1042659e-007            
7.4775075e-005  -1.0821338e-007            
7.4975008e-005  -1.0583348e-007            
7.5174942e-005  -1.034539e-007            
7.5374875e-005  -1.0119338e-007            
7.5574808e-005  -9.8946112e-008            
7.5774742e-005  -9.6831618e-008            
7.5974675e-005  -9.4529303e-008            
7.6174608e-005  -9.2127212e-008            
7.6374542e-005  -8.9877869e-008            
7.6574475e-005  -8.7691935e-008            
7.6774408e-005  -8.5325985e-008            
7.6974342e-005  -8.2970948e-008            
7.7174275e-005  -8.0473804e-008            
7.7374209e-005  -7.8109076e-008            
7.7574142e-005  -7.5711995e-008            
7.7774075e-005  -7.3363676e-008            
7.7974009e-005  -7.0934281e-008            
7.8173942e-005  -6.841453e-008            
7.8373875e-005  -6.604594e-008            
7.8573809e-005  -6.3616576e-008            
7.8773742e-005  -6.1310254e-008            
7.8973675e-005  -5.9027614e-008            
7.9173609e-005  -5.6711336e-008            
7.9373542e-005  -5.4313804e-008            
7.9573475e-005  -5.1842378e-008            
7.9773409e-005  -4.9422529e-008            
7.9973342e-005  -4.7101297e-008            
8.0173276e-005  -4.4898274e-008            
8.0373209e-005  -4.246643e-008            
8.0573142e-005  -4.013182e-008            
8.0773076e-005  -3.7592985e-008            
8.0973009e-005  -3.5031448e-008            
8.1172942e-005  -3.2612368e-008            
8.1372876e-005  -2.9983421e-008            
8.1572809e-005  -2.7405925e-008            
8.1772742e-005  -2.4830023e-008            
8.1972676e-005  -2.2293971e-008            
8.2172609e-005  -1.9702691e-008            
8.2372542e-005  -1.7181722e-008            
8.2572476e-005  -1.4788302e-008            
8.2772409e-005  -1.2392284e-008            
8.2972343e-005  -9.6236947e-009            
8.3172276e-005  -7.0843295e-009            
8.3372209e-005  -4.7185829e-009            
8.3572143e-005  -2.4745985e-009            
8.3772076e-005  -1.2560108e-010            
8.3972009e-005  2.3576673e-009            
8.4171943e-005  4.6990904e-009            
8.4371876e-005  6.9268662e-009            
8.4571809e-005  9.2181242e-009            
8.4771743e-005  1.1488655e-008            
8.4971676e-005  1.3881359e-008            
8.5171609e-005  1.5837037e-008            
8.5371543e-005  1.7860986e-008            
8.5571476e-005  1.9940191e-008            
8.5771409e-005  2.2049216e-008            
8.5971343e-005  2.4171584e-008            
8.6171276e-005  2.6168533e-008            
8.637121e-005  2.8328706e-008            
8.6571143e-005  3.0742736e-008            
8.6771076e-005  3.3089135e-008            
8.697101e-005  3.5373301e-008            
8.7170943e-005  3.7552366e-008            
8.7370876e-005  3.9860556e-008            
8.757081e-005  4.2230659e-008            
8.7770743e-005  4.4462891e-008            
8.7970676e-005  4.6374103e-008            
8.817061e-005  4.8606133e-008            
8.8370543e-005  5.0730704e-008            
8.8570476e-005  5.2602842e-008            
8.877041e-005  5.4633931e-008            
8.8970343e-005  5.6607484e-008            
8.9170277e-005  5.8619855e-008            
8.937021e-005  6.0627295e-008            
8.9570143e-005  6.2298697e-008            
8.9770077e-005  6.4130048e-008            
8.997001e-005  6.5936068e-008            
9.0169943e-005  6.7895834e-008            
9.0369877e-005  6.9821287e-008            
9.056981e-005  7.1574917e-008            
9.0769743e-005  7.3511931e-008            
9.0969677e-005  7.5277088e-008            
