Surface Profile             
x       y           
[m]     [m]         
0  5.3755987e-009            
1.9993336e-007  6.5215722e-009            
3.9986671e-007  7.1340078e-009            
5.9980007e-007  7.9175502e-009            
7.9973342e-007  8.2270007e-009            
9.9966678e-007  8.7939932e-009            
1.1996001e-006  9.5790933e-009            
1.3995335e-006  1.0551618e-008            
1.5994668e-006  1.1329843e-008            
1.7994002e-006  1.2041178e-008            
1.9993336e-006  1.2748163e-008            
2.1992669e-006  1.387351e-008            
2.3992003e-006  1.4736825e-008            
2.5991336e-006  1.5964126e-008            
2.799067e-006  1.6987997e-008            
2.9990003e-006  1.7928846e-008            
3.1989337e-006  1.8966062e-008            
3.398867e-006  1.9868161e-008            
3.5988004e-006  2.1019089e-008            
3.7987338e-006  2.2281229e-008            
3.9986671e-006  2.3297266e-008            
4.1986005e-006  2.4072007e-008            
4.3985338e-006  2.5086535e-008            
4.5984672e-006  2.6163215e-008            
4.7984005e-006  2.7451513e-008            
4.9983339e-006  2.849385e-008            
5.1982672e-006  2.9257998e-008            
5.3982006e-006  3.0086369e-008            
5.598134e-006  3.1246818e-008            
5.7980673e-006  3.2143815e-008            
5.9980007e-006  3.3095285e-008            
6.197934e-006  3.3997195e-008            
6.3978674e-006  3.4852984e-008            
6.5978007e-006  3.5689162e-008            
6.7977341e-006  3.6381525e-008            
6.9976674e-006  3.716197e-008            
7.1976008e-006  3.8095524e-008            
7.3975342e-006  3.8810483e-008            
7.5974675e-006  3.9505051e-008            
7.7974009e-006  4.0086487e-008            
7.9973342e-006  4.072826e-008            
8.1972676e-006  4.1335215e-008            
8.3972009e-006  4.1959243e-008            
8.5971343e-006  4.2672733e-008            
8.7970676e-006  4.3198486e-008            
8.997001e-006  4.3731123e-008            
9.1969344e-006  4.4333701e-008            
9.3968677e-006  4.4771584e-008            
9.5968011e-006  4.5415477e-008            
9.7967344e-006  4.5840628e-008            
9.9966678e-006  4.6260161e-008            
1.0196601e-005  4.6717738e-008            
1.0396534e-005  4.7154417e-008            
1.0596468e-005  4.7670994e-008            
1.0796401e-005  4.7931248e-008            
1.0996335e-005  4.8327328e-008            
1.1196268e-005  4.8777967e-008            
1.1396201e-005  4.9078691e-008            
1.1596135e-005  4.9610645e-008            
1.1796068e-005  4.991753e-008            
1.1996001e-005  5.0169248e-008            
1.2195935e-005  5.0570845e-008            
1.2395868e-005  5.0830876e-008            
1.2595801e-005  5.1085631e-008            
1.2795735e-005  5.148007e-008            
1.2995668e-005  5.1648908e-008            
1.3195601e-005  5.1889532e-008            
1.3395535e-005  5.2217828e-008            
1.3595468e-005  5.2419801e-008            
1.3795402e-005  5.2683514e-008            
1.3995335e-005  5.2829168e-008            
1.4195268e-005  5.299962e-008            
1.4395202e-005  5.3273886e-008            
1.4595135e-005  5.3524007e-008            
1.4795068e-005  5.3694973e-008            
1.4995002e-005  5.397626e-008            
1.5194935e-005  5.4255172e-008            
1.5394868e-005  5.4411117e-008            
1.5594802e-005  5.4497815e-008            
1.5794735e-005  5.4670008e-008            
1.5994668e-005  5.4832944e-008            
1.6194602e-005  5.5049785e-008            
1.6394535e-005  5.5170736e-008            
1.6594469e-005  5.5205278e-008            
1.6794402e-005  5.5381573e-008            
1.6994335e-005  5.5828508e-008            
1.7194269e-005  5.5970949e-008            
1.7394202e-005  5.6124844e-008            
1.7594135e-005  5.6039083e-008            
1.7794069e-005  5.6167468e-008            
1.7994002e-005  5.6408781e-008            
1.8193935e-005  5.6676197e-008            
1.8393869e-005  5.6945343e-008            
1.8593802e-005  5.7179635e-008            
1.8793735e-005  5.7220713e-008            
1.8993669e-005  5.7453067e-008            
1.9193602e-005  5.7661908e-008            
1.9393535e-005  5.7914863e-008            
1.9593469e-005  5.828236e-008            
1.9793402e-005  5.8366374e-008            
1.9993336e-005  5.8346688e-008            
2.0193269e-005  5.8577118e-008            
2.0393202e-005  5.9008972e-008            
2.0593136e-005  5.9502308e-008            
2.0793069e-005  5.9728778e-008            
2.0993002e-005  5.9997922e-008            
2.1192936e-005  6.0310827e-008            
2.1392869e-005  6.0685836e-008            
2.1592802e-005  6.0996492e-008            
2.1792736e-005  6.115522e-008            
2.1992669e-005  6.1407415e-008            
2.2192602e-005  6.1785632e-008            
2.2392536e-005  6.2102241e-008            
2.2592469e-005  6.2303416e-008            
2.2792403e-005  6.2582282e-008            
2.2992336e-005  6.2973408e-008            
2.3192269e-005  6.3676875e-008            
2.3392203e-005  6.3877696e-008            
2.3592136e-005  6.3765054e-008            
2.3792069e-005  6.3923181e-008            
2.3992003e-005  6.4375739e-008            
2.4191936e-005  6.5043592e-008            
2.4391869e-005  6.5307098e-008            
2.4591803e-005  6.5482124e-008            
2.4791736e-005  6.5933709e-008            
2.4991669e-005  6.6309117e-008            
2.5191603e-005  6.6634295e-008            
2.5391536e-005  6.7143562e-008            
2.5591469e-005  6.7554083e-008            
2.5791403e-005  6.8060254e-008            
2.5991336e-005  6.8466935e-008            
2.619127e-005  6.8594559e-008            
2.6391203e-005  6.9003853e-008            
2.6591136e-005  6.9598379e-008            
2.679107e-005  7.0188587e-008            
2.6991003e-005  7.057324e-008            
2.7190936e-005  7.0636724e-008            
2.739087e-005  7.0830721e-008            
2.7590803e-005  7.138316e-008            
2.7790736e-005  7.1909201e-008            
2.799067e-005  7.2264027e-008            
2.8190603e-005  7.2641905e-008            
2.8390536e-005  7.2862391e-008            
2.859047e-005  7.3293902e-008            
2.8790403e-005  7.3651666e-008            
2.8990337e-005  7.4185933e-008            
2.919027e-005  7.4622138e-008            
2.9390203e-005  7.4961607e-008            
2.9590137e-005  7.5195002e-008            
2.979007e-005  7.5493989e-008            
2.9990003e-005  7.6035227e-008            
3.0189937e-005  7.6660632e-008            
3.038987e-005  7.715195e-008            
3.0589803e-005  7.7437359e-008            
3.0789737e-005  7.7678334e-008            
3.098967e-005  7.8181701e-008            
3.1189603e-005  7.8491584e-008            
3.1389537e-005  7.8787026e-008            
3.158947e-005  7.9026733e-008            
3.1789404e-005  7.9201886e-008            
3.1989337e-005  7.9460266e-008            
3.218927e-005  7.9799642e-008            
3.2389204e-005  7.9904498e-008            
3.2589137e-005  8.0236646e-008            
3.278907e-005  8.0568085e-008            
3.2989004e-005  8.0685302e-008            
3.3188937e-005  8.0956353e-008            
3.338887e-005  8.0928313e-008            
3.3588804e-005  8.107498e-008            
3.3788737e-005  8.1388181e-008            
3.398867e-005  8.1631185e-008            
3.4188604e-005  8.1718645e-008            
3.4388537e-005  8.1754506e-008            
3.458847e-005  8.1721501e-008            
3.4788404e-005  8.182932e-008            
3.4988337e-005  8.2096359e-008            
3.5188271e-005  8.2060955e-008            
3.5388204e-005  8.2147335e-008            
3.5588137e-005  8.2218833e-008            
3.5788071e-005  8.2171237e-008            
3.5988004e-005  8.2247509e-008            
3.6187937e-005  8.2177516e-008            
3.6387871e-005  8.2210988e-008            
3.6587804e-005  8.2350752e-008            
3.6787737e-005  8.2368041e-008            
3.6987671e-005  8.2253273e-008            
3.7187604e-005  8.2048732e-008            
3.7387537e-005  8.1959603e-008            
3.7587471e-005  8.2103925e-008            
3.7787404e-005  8.2192313e-008            
3.7987338e-005  8.2224809e-008            
3.8187271e-005  8.2093817e-008            
3.8387204e-005  8.2083213e-008            
3.8587138e-005  8.2140305e-008            
3.8787071e-005  8.2101002e-008            
3.8987004e-005  8.2305468e-008            
3.9186938e-005  8.2264977e-008            
3.9386871e-005  8.215936e-008            
3.9586804e-005  8.1941891e-008            
3.9786738e-005  8.2007458e-008            
3.9986671e-005  8.2255894e-008            
4.0186604e-005  8.2229864e-008            
4.0386538e-005  8.2001184e-008            
4.0586471e-005  8.2028737e-008            
4.0786405e-005  8.1960119e-008            
4.0986338e-005  8.1915685e-008            
4.1186271e-005  8.1809035e-008            
4.1386205e-005  8.184828e-008            
4.1586138e-005  8.1940742e-008            
4.1786071e-005  8.1955581e-008            
4.1986005e-005  8.1772146e-008            
4.2185938e-005  8.1878869e-008            
4.2385871e-005  8.2043622e-008            
4.2585805e-005  8.2288914e-008            
4.2785738e-005  8.2510287e-008            
4.2985671e-005  8.2679167e-008            
4.3185605e-005  8.2809219e-008            
4.3385538e-005  8.30801e-008            
4.3585471e-005  8.3245634e-008            
4.3785405e-005  8.3611964e-008            
4.3985338e-005  8.3721123e-008            
4.4185272e-005  8.372867e-008            
4.4385205e-005  8.3852262e-008            
4.4585138e-005  8.4031605e-008            
4.4785072e-005  8.4532742e-008            
4.4985005e-005  8.4993507e-008            
4.5184938e-005  8.5162054e-008            
4.5384872e-005  8.5432115e-008            
4.5584805e-005  8.5625511e-008            
4.5784738e-005  8.6065191e-008            
4.5984672e-005  8.6405035e-008            
4.6184605e-005  8.6741438e-008            
4.6384538e-005  8.6914687e-008            
4.6584472e-005  8.6940662e-008            
4.6784405e-005  8.7130907e-008            
4.6984339e-005  8.7506857e-008            
4.7184272e-005  8.7818842e-008            
4.7384205e-005  8.8077215e-008            
4.7584139e-005  8.8195424e-008            
4.7784072e-005  8.8083284e-008            
4.7984005e-005  8.8018973e-008            
4.8183939e-005  8.8009553e-008            
4.8383872e-005  8.8339937e-008            
4.8583805e-005  8.8502361e-008            
4.8783739e-005  8.8587119e-008            
4.8983672e-005  8.8402032e-008            
4.9183605e-005  8.8128416e-008            
4.9383539e-005  8.8146728e-008            
4.9583472e-005  8.8409082e-008            
4.9783406e-005  8.8506052e-008            
4.9983339e-005  8.8336305e-008            
5.0183272e-005  8.7973573e-008            
5.0383206e-005  8.7611503e-008            
5.0583139e-005  8.769859e-008            
5.0783072e-005  8.742608e-008            
5.0983006e-005  8.7084773e-008            
5.1182939e-005  8.6641923e-008            
5.1382872e-005  8.634221e-008            
5.1582806e-005  8.6016165e-008            
5.1782739e-005  8.5543569e-008            
5.1982672e-005  8.4957678e-008            
5.2182606e-005  8.4616309e-008            
5.2382539e-005  8.4037926e-008            
5.2582472e-005  8.3468973e-008            
5.2782406e-005  8.2836258e-008            
5.2982339e-005  8.226006e-008            
5.3182273e-005  8.1895728e-008            
5.3382206e-005  8.1355661e-008            
5.3582139e-005  8.0699043e-008            
5.3782073e-005  8.0242707e-008            
5.3982006e-005  7.9779834e-008            
5.4181939e-005  7.9535566e-008            
5.4381873e-005  7.9223101e-008            
5.4581806e-005  7.8846153e-008            
5.4781739e-005  7.8363721e-008            
5.4981673e-005  7.7884207e-008            
5.5181606e-005  7.7432944e-008            
5.5381539e-005  7.7096414e-008            
5.5581473e-005  7.6642687e-008            
5.5781406e-005  7.6371672e-008            
5.598134e-005  7.5918111e-008            
5.6181273e-005  7.5434919e-008            
5.6381206e-005  7.499583e-008            
5.658114e-005  7.4645488e-008            
5.6781073e-005  7.4292584e-008            
5.6981006e-005  7.3717864e-008            
5.718094e-005  7.3252957e-008            
5.7380873e-005  7.2978348e-008            
5.7580806e-005  7.2507324e-008            
5.778074e-005  7.1990803e-008            
5.7980673e-005  7.1531823e-008            
5.8180606e-005  7.1073073e-008            
5.838054e-005  7.0746944e-008            
5.8580473e-005  7.0197304e-008            
5.8780407e-005  6.9600411e-008            
5.898034e-005  6.9106158e-008            
5.9180273e-005  6.8742478e-008            
5.9380207e-005  6.8405216e-008            
5.958014e-005  6.7990958e-008            
5.9780073e-005  6.7294593e-008            
5.9980007e-005  6.6679261e-008            
6.017994e-005  6.6180831e-008            
6.0379873e-005  6.5685518e-008            
6.0579807e-005  6.5365659e-008            
6.077974e-005  6.4812319e-008            
6.0979673e-005  6.4259017e-008            
6.1179607e-005  6.365132e-008            
6.137954e-005  6.3088441e-008            
6.1579473e-005  6.2672296e-008            
6.1779407e-005  6.2367763e-008            
6.197934e-005  6.1946574e-008            
6.2179274e-005  6.142022e-008            
6.2379207e-005  6.0862134e-008            
6.257914e-005  6.0354057e-008            
6.2779074e-005  6.0059874e-008            
6.2979007e-005  5.9811209e-008            
6.317894e-005  5.9526112e-008            
6.3378874e-005  5.9162014e-008            
6.3578807e-005  5.8600627e-008            
6.377874e-005  5.8067676e-008            
6.3978674e-005  5.7668442e-008            
6.4178607e-005  5.7634442e-008            
6.437854e-005  5.7379282e-008            
6.4578474e-005  5.6913973e-008            
6.4778407e-005  5.6287541e-008            
6.4978341e-005  5.5738456e-008            
6.5178274e-005  5.543436e-008            
6.5378207e-005  5.5108826e-008            
6.5578141e-005  5.461235e-008            
6.5778074e-005  5.4084284e-008            
6.5978007e-005  5.3605021e-008            
6.6177941e-005  5.3225221e-008            
6.6377874e-005  5.2907974e-008            
6.6577807e-005  5.246448e-008            
6.6777741e-005  5.2159183e-008            
6.6977674e-005  5.1837371e-008            
6.7177607e-005  5.1225624e-008            
6.7377541e-005  5.0666308e-008            
6.7577474e-005  5.0093551e-008            
6.7777407e-005  4.9924123e-008            
6.7977341e-005  4.9674836e-008            
6.8177274e-005  4.9170808e-008            
6.8377208e-005  4.8611536e-008            
6.8577141e-005  4.8063198e-008            
6.8777074e-005  4.7658355e-008            
6.8977008e-005  4.7172983e-008            
6.9176941e-005  4.6771726e-008            
6.9376874e-005  4.6350041e-008            
6.9576808e-005  4.5991861e-008            
6.9776741e-005  4.5589293e-008            
6.9976674e-005  4.5132465e-008            
7.0176608e-005  4.4909748e-008            
7.0376541e-005  4.4611197e-008            
7.0576474e-005  4.4319324e-008            
7.0776408e-005  4.3919336e-008            
7.0976341e-005  4.353168e-008            
7.1176275e-005  4.3284107e-008            
7.1376208e-005  4.3108938e-008            
7.1576141e-005  4.2775698e-008            
7.1776075e-005  4.237528e-008            
7.1976008e-005  4.2089872e-008            
7.2175941e-005  4.1747372e-008            
7.2375875e-005  4.1583694e-008            
7.2575808e-005  4.1164887e-008            
7.2775741e-005  4.0626557e-008            
7.2975675e-005  4.0162521e-008            
7.3175608e-005  3.9830544e-008            
7.3375541e-005  3.937567e-008            
7.3575475e-005  3.8817822e-008            
7.3775408e-005  3.8295039e-008            
7.3975342e-005  3.7734737e-008            
7.4175275e-005  3.7343359e-008            
7.4375208e-005  3.6593114e-008            
7.4575142e-005  3.5881521e-008            
7.4775075e-005  3.5242278e-008            
7.4975008e-005  3.4390373e-008            
7.5174942e-005  3.3627464e-008            
7.5374875e-005  3.274916e-008            
7.5574808e-005  3.1818336e-008            
7.5774742e-005  3.1278782e-008            
7.5974675e-005  3.0401188e-008            
7.6174608e-005  2.9497456e-008            
7.6374542e-005  2.8553678e-008            
7.6574475e-005  2.7575984e-008            
7.6774408e-005  2.673442e-008            
7.6974342e-005  2.5670393e-008            
7.7174275e-005  2.4556562e-008            
7.7374209e-005  2.3427139e-008            
7.7574142e-005  2.2327314e-008            
7.7774075e-005  2.132952e-008            
7.7974009e-005  2.0224143e-008            
7.8173942e-005  1.9025333e-008            
7.8373875e-005  1.7751892e-008            
7.8573809e-005  1.6559672e-008            
7.8773742e-005  1.5129926e-008            
7.8973675e-005  1.3699502e-008            
7.9173609e-005  1.2215544e-008            
7.9373542e-005  1.0919942e-008            
7.9573475e-005  9.5373239e-009            
7.9773409e-005  8.0140116e-009            
7.9973342e-005  6.5162612e-009            
8.0173276e-005  5.157314e-009            
8.0373209e-005  3.781553e-009            
8.0573142e-005  2.4976022e-009            
8.0773076e-005  8.6445321e-010            
8.0973009e-005  -4.2351908e-010            
8.1172942e-005  -1.8315744e-009            
8.1372876e-005  -3.2778463e-009            
8.1572809e-005  -4.7542698e-009            
8.1772742e-005  -6.1801538e-009            
8.1972676e-005  -7.5360441e-009            
8.2172609e-005  -8.9810475e-009            
8.2372542e-005  -1.0628821e-008            
8.2572476e-005  -1.198629e-008            
8.2772409e-005  -1.3617492e-008            
8.2972343e-005  -1.5177869e-008            
8.3172276e-005  -1.6690995e-008            
8.3372209e-005  -1.8490184e-008            
8.3572143e-005  -1.9963739e-008            
8.3772076e-005  -2.1511041e-008            
8.3972009e-005  -2.3023558e-008            
8.4171943e-005  -2.4600615e-008            
8.4371876e-005  -2.6270366e-008            
8.4571809e-005  -2.7769128e-008            
8.4771743e-005  -2.9212769e-008            
8.4971676e-005  -3.060446e-008            
8.5171609e-005  -3.2030132e-008            
8.5371543e-005  -3.3475221e-008            
8.5571476e-005  -3.4932979e-008            
8.5771409e-005  -3.6021148e-008            
8.5971343e-005  -3.7176278e-008            
8.6171276e-005  -3.8393155e-008            
8.637121e-005  -3.9773618e-008            
8.6571143e-005  -4.1270697e-008            
8.6771076e-005  -4.2590584e-008            
8.697101e-005  -4.4063149e-008            
8.7170943e-005  -4.5295948e-008            
8.7370876e-005  -4.6720977e-008            
8.757081e-005  -4.8264095e-008            
8.7770743e-005  -4.9662929e-008            
8.7970676e-005  -5.1126191e-008            
8.817061e-005  -5.2547683e-008            
8.8370543e-005  -5.3646385e-008            
8.8570476e-005  -5.4941124e-008            
8.877041e-005  -5.6431377e-008            
8.8970343e-005  -5.7887651e-008            
8.9170277e-005  -5.9332334e-008            
8.937021e-005  -6.0557703e-008            
8.9570143e-005  -6.1879083e-008            
8.9770077e-005  -6.3138312e-008            
8.997001e-005  -6.4740761e-008            
9.0169943e-005  -6.6258993e-008            
9.0369877e-005  -6.7721977e-008            
9.056981e-005  -6.9053677e-008            
9.0769743e-005  -7.037547e-008            
9.0969677e-005  -7.1926539e-008            
9.116961e-005  -7.3523488e-008            
9.1369543e-005  -7.5034672e-008            
9.1569477e-005  -7.6487461e-008            
9.176941e-005  -7.7662271e-008            
9.1969344e-005  -7.8744182e-008            
9.2169277e-005  -7.9979033e-008            
9.236921e-005  -8.1362702e-008            
9.2569144e-005  -8.267528e-008            
