Surface Profile             
x       y           
[m]     [m]         
0  -5.0474991e-009            
1.9993336e-007  -6.9034051e-009            
3.9986671e-007  -8.2573571e-009            
5.9980007e-007  -9.4422909e-009            
7.9973342e-007  -1.0359714e-008            
9.9966678e-007  -1.1163763e-008            
1.1996001e-006  -1.2046841e-008            
1.3995335e-006  -1.3108982e-008            
1.5994668e-006  -1.4142394e-008            
1.7994002e-006  -1.5183757e-008            
1.9993336e-006  -1.6352656e-008            
2.1992669e-006  -1.7415592e-008            
2.3992003e-006  -1.8764374e-008            
2.5991336e-006  -2.0085561e-008            
2.799067e-006  -2.1274549e-008            
2.9990003e-006  -2.244728e-008            
3.1989337e-006  -2.3556149e-008            
3.398867e-006  -2.4860602e-008            
3.5988004e-006  -2.5949692e-008            
3.7987338e-006  -2.7028363e-008            
3.9986671e-006  -2.8169013e-008            
4.1986005e-006  -2.936825e-008            
4.3985338e-006  -3.0206908e-008            
4.5984672e-006  -3.0952396e-008            
4.7984005e-006  -3.1668677e-008            
4.9983339e-006  -3.2471948e-008            
5.1982672e-006  -3.3138949e-008            
5.3982006e-006  -3.3650705e-008            
5.598134e-006  -3.3912414e-008            
5.7980673e-006  -3.4181343e-008            
5.9980007e-006  -3.4561099e-008            
6.197934e-006  -3.4881864e-008            
6.3978674e-006  -3.5001614e-008            
6.5978007e-006  -3.4851126e-008            
6.7977341e-006  -3.4729714e-008            
6.9976674e-006  -3.4452198e-008            
7.1976008e-006  -3.4264248e-008            
7.3975342e-006  -3.4098667e-008            
7.5974675e-006  -3.3813797e-008            
7.7974009e-006  -3.3587233e-008            
7.9973342e-006  -3.2847411e-008            
8.1972676e-006  -3.2270578e-008            
8.3972009e-006  -3.1513835e-008            
8.5971343e-006  -3.1063328e-008            
8.7970676e-006  -3.0442473e-008            
8.997001e-006  -2.9567062e-008            
9.1969344e-006  -2.8604998e-008            
9.3968677e-006  -2.7624047e-008            
9.5968011e-006  -2.6671099e-008            
9.7967344e-006  -2.5727212e-008            
9.9966678e-006  -2.4492739e-008            
1.0196601e-005  -2.3206344e-008            
1.0396534e-005  -2.1717525e-008            
1.0596468e-005  -2.0335355e-008            
1.0796401e-005  -1.899043e-008            
1.0996335e-005  -1.7610973e-008            
1.1196268e-005  -1.6159294e-008            
1.1396201e-005  -1.4729915e-008            
1.1596135e-005  -1.2880617e-008            
1.1796068e-005  -1.1174604e-008            
1.1996001e-005  -9.6170251e-009            
1.2195935e-005  -8.1455966e-009            
1.2395868e-005  -6.4488895e-009            
1.2595801e-005  -4.6056676e-009            
1.2795735e-005  -2.4753599e-009            
1.2995668e-005  -5.680711e-010            
1.3195601e-005  1.2425441e-009            
1.3395535e-005  3.1210621e-009            
1.3595468e-005  5.0754527e-009            
1.3795402e-005  7.310493e-009            
1.3995335e-005  9.4832466e-009            
1.4195268e-005  1.1385379e-008            
1.4395202e-005  1.3406903e-008            
1.4595135e-005  1.5194826e-008            
1.4795068e-005  1.7154853e-008            
1.4995002e-005  1.9137991e-008            
1.5194935e-005  2.1237932e-008            
1.5394868e-005  2.3282036e-008            
1.5594802e-005  2.5132552e-008            
1.5794735e-005  2.7116762e-008            
1.5994668e-005  2.9087446e-008            
1.6194602e-005  3.1174885e-008            
1.6394535e-005  3.3328028e-008            
1.6594469e-005  3.5439348e-008            
1.6794402e-005  3.7543319e-008            
1.6994335e-005  3.9721961e-008            
1.7194269e-005  4.1918177e-008            
1.7394202e-005  4.4275319e-008            
1.7594135e-005  4.6680966e-008            
1.7794069e-005  4.9144165e-008            
1.7994002e-005  5.1640235e-008            
1.8193935e-005  5.4039512e-008            
1.8393869e-005  5.6598397e-008            
1.8593802e-005  5.8989045e-008            
1.8793735e-005  6.1412668e-008            
1.8993669e-005  6.3957461e-008            
1.9193602e-005  6.6441672e-008            
1.9393535e-005  6.8949153e-008            
1.9593469e-005  7.1181305e-008            
1.9793402e-005  7.3390837e-008            
1.9993336e-005  7.5667705e-008            
2.0193269e-005  7.8053686e-008            
2.0393202e-005  8.023054e-008            
2.0593136e-005  8.2475242e-008            
2.0793069e-005  8.4844402e-008            
2.0993002e-005  8.7267261e-008            
2.1192936e-005  8.9655205e-008            
2.1392869e-005  9.1999735e-008            
2.1592802e-005  9.4358323e-008            
2.1792736e-005  9.6813068e-008            
2.1992669e-005  9.9332794e-008            
2.2192602e-005  1.0196041e-007            
2.2392536e-005  1.0459125e-007            
2.2592469e-005  1.0706345e-007            
2.2792403e-005  1.0966532e-007            
2.2992336e-005  1.1215705e-007            
2.3192269e-005  1.1481045e-007            
2.3392203e-005  1.1735369e-007            
2.3592136e-005  1.1993108e-007            
2.3792069e-005  1.2268287e-007            
2.3992003e-005  1.252577e-007            
2.4191936e-005  1.2770232e-007            
2.4391869e-005  1.3010855e-007            
2.4591803e-005  1.3261864e-007            
2.4791736e-005  1.353459e-007            
2.4991669e-005  1.3793709e-007            
2.5191603e-005  1.4046333e-007            
2.5391536e-005  1.4289392e-007            
2.5591469e-005  1.4542673e-007            
2.5791403e-005  1.4816256e-007            
2.5991336e-005  1.5076586e-007            
2.619127e-005  1.5333646e-007            
2.6391203e-005  1.5588277e-007            
2.6591136e-005  1.5832495e-007            
2.679107e-005  1.609515e-007            
2.6991003e-005  1.6361731e-007            
2.7190936e-005  1.6615192e-007            
2.739087e-005  1.6881808e-007            
2.7590803e-005  1.7138605e-007            
2.7790736e-005  1.7381034e-007            
2.799067e-005  1.7620495e-007            
2.8190603e-005  1.7859061e-007            
2.8390536e-005  1.8118153e-007            
2.859047e-005  1.835381e-007            
2.8790403e-005  1.8573588e-007            
2.8990337e-005  1.8813969e-007            
2.919027e-005  1.9045919e-007            
2.9390203e-005  1.9258028e-007            
2.9590137e-005  1.9484925e-007            
2.979007e-005  1.970505e-007            
2.9990003e-005  1.9921006e-007            
3.0189937e-005  2.0128609e-007            
3.038987e-005  2.0296496e-007            
3.0589803e-005  2.0494793e-007            
3.0789737e-005  2.0687061e-007            
3.098967e-005  2.0897841e-007            
3.1189603e-005  2.1086859e-007            
3.1389537e-005  2.1255593e-007            
3.158947e-005  2.143255e-007            
3.1789404e-005  2.1632024e-007            
3.1989337e-005  2.1849922e-007            
3.218927e-005  2.2044593e-007            
3.2389204e-005  2.2236281e-007            
3.2589137e-005  2.2412241e-007            
3.278907e-005  2.2590581e-007            
3.2989004e-005  2.2784266e-007            
3.3188937e-005  2.2981437e-007            
3.338887e-005  2.3160919e-007            
3.3588804e-005  2.3344089e-007            
3.3788737e-005  2.3523929e-007            
3.398867e-005  2.3692117e-007            
3.4188604e-005  2.38792e-007            
3.4388537e-005  2.4053193e-007            
3.458847e-005  2.4232776e-007            
3.4788404e-005  2.4416125e-007            
3.4988337e-005  2.4572596e-007            
3.5188271e-005  2.4736581e-007            
3.5388204e-005  2.492274e-007            
3.5588137e-005  2.510426e-007            
3.5788071e-005  2.5291593e-007            
3.5988004e-005  2.5457078e-007            
3.6187937e-005  2.5611851e-007            
3.6387871e-005  2.5794295e-007            
3.6587804e-005  2.5970149e-007            
3.6787737e-005  2.6181664e-007            
3.6987671e-005  2.6383827e-007            
3.7187604e-005  2.6562041e-007            
3.7387537e-005  2.6747476e-007            
3.7587471e-005  2.694648e-007            
3.7787404e-005  2.7150474e-007            
3.7987338e-005  2.7365014e-007            
3.8187271e-005  2.7569676e-007            
3.8387204e-005  2.7772899e-007            
3.8587138e-005  2.7963512e-007            
3.8787071e-005  2.8130526e-007            
3.8987004e-005  2.8339063e-007            
3.9186938e-005  2.8547401e-007            
3.9386871e-005  2.8737286e-007            
3.9586804e-005  2.8908877e-007            
3.9786738e-005  2.9081019e-007            
3.9986671e-005  2.925239e-007            
4.0186604e-005  2.943168e-007            
4.0386538e-005  2.9610092e-007            
4.0586471e-005  2.978527e-007            
4.0786405e-005  2.9951814e-007            
4.0986338e-005  3.0129037e-007            
4.1186271e-005  3.0278806e-007            
4.1386205e-005  3.0446909e-007            
4.1586138e-005  3.0624807e-007            
4.1786071e-005  3.0803608e-007            
4.1986005e-005  3.0979859e-007            
4.2185938e-005  3.1133805e-007            
4.2385871e-005  3.1298835e-007            
4.2585805e-005  3.1479977e-007            
4.2785738e-005  3.1659673e-007            
4.2985671e-005  3.1835284e-007            
4.3185605e-005  3.2003165e-007            
4.3385538e-005  3.2146828e-007            
4.3585471e-005  3.229633e-007            
4.3785405e-005  3.2454819e-007            
4.3985338e-005  3.2619825e-007            
4.4185272e-005  3.2766762e-007            
4.4385205e-005  3.2917447e-007            
4.4585138e-005  3.3073413e-007            
4.4785072e-005  3.3222549e-007            
4.4985005e-005  3.3368532e-007            
4.5184938e-005  3.3508123e-007            
4.5384872e-005  3.3665503e-007            
4.5584805e-005  3.3822233e-007            
4.5784738e-005  3.3966885e-007            
4.5984672e-005  3.4082316e-007            
4.6184605e-005  3.420557e-007            
4.6384538e-005  3.4346176e-007            
4.6584472e-005  3.4502768e-007            
4.6784405e-005  3.4657358e-007            
4.6984339e-005  3.4793943e-007            
4.7184272e-005  3.4933427e-007            
4.7384205e-005  3.5073411e-007            
4.7584139e-005  3.5223293e-007            
4.7784072e-005  3.538496e-007            
4.7984005e-005  3.5533913e-007            
4.8183939e-005  3.5674434e-007            
4.8383872e-005  3.5810822e-007            
4.8583805e-005  3.5932856e-007            
4.8783739e-005  3.6065301e-007            
4.8983672e-005  3.6215358e-007            
4.9183605e-005  3.6349496e-007            
4.9383539e-005  3.6491908e-007            
4.9583472e-005  3.6622873e-007            
4.9783406e-005  3.6735294e-007            
4.9983339e-005  3.6863518e-007            
5.0183272e-005  3.6995065e-007            
5.0383206e-005  3.7129571e-007            
5.0583139e-005  3.7248261e-007            
5.0783072e-005  3.734165e-007            
5.0983006e-005  3.7454482e-007            
5.1182939e-005  3.7600374e-007            
5.1382872e-005  3.773011e-007            
5.1582806e-005  3.7849059e-007            
5.1782739e-005  3.7967492e-007            
5.1982672e-005  3.8092974e-007            
5.2182606e-005  3.8212328e-007            
5.2382539e-005  3.8326891e-007            
5.2582472e-005  3.8433178e-007            
5.2782406e-005  3.8523943e-007            
5.2982339e-005  3.8628191e-007            
5.3182273e-005  3.8703558e-007            
5.3382206e-005  3.8782031e-007            
5.3582139e-005  3.8886921e-007            
5.3782073e-005  3.8973533e-007            
5.3982006e-005  3.9053142e-007            
5.4181939e-005  3.9119731e-007            
5.4381873e-005  3.9180883e-007            
5.4581806e-005  3.9245926e-007            
5.4781739e-005  3.9307011e-007            
5.4981673e-005  3.9369077e-007            
5.5181606e-005  3.9424964e-007            
5.5381539e-005  3.9476576e-007            
5.5581473e-005  3.952322e-007            
5.5781406e-005  3.9573736e-007            
5.598134e-005  3.9622074e-007            
5.6181273e-005  3.9683379e-007            
5.6381206e-005  3.9742403e-007            
5.658114e-005  3.9781052e-007            
5.6781073e-005  3.9851697e-007            
5.6981006e-005  3.9921334e-007            
5.718094e-005  3.9994596e-007            
5.7380873e-005  4.0062217e-007            
5.7580806e-005  4.0119249e-007            
5.778074e-005  4.0181959e-007            
5.7980673e-005  4.0263445e-007            
5.8180606e-005  4.0349867e-007            
5.838054e-005  4.0458606e-007            
5.8580473e-005  4.0552662e-007            
5.8780407e-005  4.063144e-007            
5.898034e-005  4.0719008e-007            
5.9180273e-005  4.0816075e-007            
5.9380207e-005  4.0921697e-007            
5.958014e-005  4.1016953e-007            
5.9780073e-005  4.1108931e-007            
5.9980007e-005  4.1206583e-007            
6.017994e-005  4.1300936e-007            
6.0379873e-005  4.1403276e-007            
6.0579807e-005  4.1475461e-007            
6.077974e-005  4.1580898e-007            
6.0979673e-005  4.1690148e-007            
6.1179607e-005  4.1808066e-007            
6.137954e-005  4.1903506e-007            
6.1579473e-005  4.2002819e-007            
6.1779407e-005  4.21032e-007            
6.197934e-005  4.223813e-007            
6.2179274e-005  4.2331952e-007            
6.2379207e-005  4.2419014e-007            
6.257914e-005  4.2507991e-007            
6.2779074e-005  4.2621046e-007            
6.2979007e-005  4.2730899e-007            
6.317894e-005  4.2827703e-007            
6.3378874e-005  4.2914877e-007            
6.3578807e-005  4.2994497e-007            
6.377874e-005  4.3087379e-007            
6.3978674e-005  4.3163613e-007            
6.4178607e-005  4.3236033e-007            
6.437854e-005  4.3302138e-007            
6.4578474e-005  4.336667e-007            
6.4778407e-005  4.3430557e-007            
6.4978341e-005  4.3478341e-007            
6.5178274e-005  4.3522892e-007            
6.5378207e-005  4.358489e-007            
6.5578141e-005  4.3640968e-007            
6.5778074e-005  4.3688754e-007            
6.5978007e-005  4.3702808e-007            
6.6177941e-005  4.3740794e-007            
6.6377874e-005  4.377888e-007            
6.6577807e-005  4.3804622e-007            
6.6777741e-005  4.38379e-007            
6.6977674e-005  4.3858282e-007            
6.7177607e-005  4.3886202e-007            
6.7377541e-005  4.3905871e-007            
6.7577474e-005  4.3917033e-007            
6.7777407e-005  4.3935165e-007            
6.7977341e-005  4.3923367e-007            
6.8177274e-005  4.3916757e-007            
6.8377208e-005  4.3918803e-007            
6.8577141e-005  4.3913045e-007            
6.8777074e-005  4.39188e-007            
6.8977008e-005  4.3918803e-007            
6.9176941e-005  4.3901764e-007            
6.9376874e-005  4.3905361e-007            
6.9576808e-005  4.3883564e-007            
6.9776741e-005  4.3869413e-007            
6.9976674e-005  4.3848812e-007            
7.0176608e-005  4.3804248e-007            
7.0376541e-005  4.3772743e-007            
7.0576474e-005  4.376115e-007            
7.0776408e-005  4.3732335e-007            
7.0976341e-005  4.3705706e-007            
7.1176275e-005  4.3687405e-007            
7.1376208e-005  4.364669e-007            
7.1576141e-005  4.3616549e-007            
7.1776075e-005  4.3577529e-007            
7.1976008e-005  4.3553317e-007            
7.2175941e-005  4.3522318e-007            
7.2375875e-005  4.3494544e-007            
7.2575808e-005  4.3462073e-007            
7.2775741e-005  4.3427861e-007            
7.2975675e-005  4.3411285e-007            
7.3175608e-005  4.3381669e-007            
7.3375541e-005  4.3353927e-007            
7.3575475e-005  4.3316305e-007            
7.3775408e-005  4.3272224e-007            
7.3975342e-005  4.3238986e-007            
7.4175275e-005  4.320673e-007            
7.4375208e-005  4.3157723e-007            
7.4575142e-005  4.3118059e-007            
7.4775075e-005  4.3073222e-007            
7.4975008e-005  4.3031569e-007            
7.5174942e-005  4.2990639e-007            
7.5374875e-005  4.2936597e-007            
7.5574808e-005  4.2905518e-007            
7.5774742e-005  4.2884398e-007            
7.5974675e-005  4.2839465e-007            
7.6174608e-005  4.2790574e-007            
7.6374542e-005  4.2754251e-007            
7.6574475e-005  4.2738064e-007            
7.6774408e-005  4.2732353e-007            
7.6974342e-005  4.2695636e-007            
7.7174275e-005  4.2659372e-007            
7.7374209e-005  4.2636862e-007            
7.7574142e-005  4.2634236e-007            
7.7774075e-005  4.2629256e-007            
7.7974009e-005  4.2603749e-007            
7.8173942e-005  4.2572701e-007            
7.8373875e-005  4.2568912e-007            
7.8573809e-005  4.2564203e-007            
7.8773742e-005  4.2562895e-007            
7.8973675e-005  4.2573143e-007            
7.9173609e-005  4.2559945e-007            
7.9373542e-005  4.254476e-007            
7.9573475e-005  4.2526476e-007            
7.9773409e-005  4.2503465e-007            
7.9973342e-005  4.2483855e-007            
8.0173276e-005  4.248862e-007            
8.0373209e-005  4.2471518e-007            
8.0573142e-005  4.2467499e-007            
8.0773076e-005  4.2457025e-007            
8.0973009e-005  4.2476591e-007            
8.1172942e-005  4.2502675e-007            
8.1372876e-005  4.2521763e-007            
8.1572809e-005  4.2519964e-007            
8.1772742e-005  4.2537083e-007            
8.1972676e-005  4.2555492e-007            
8.2172609e-005  4.2562827e-007            
8.2372542e-005  4.2565483e-007            
8.2572476e-005  4.2587252e-007            
8.2772409e-005  4.2610557e-007            
8.2972343e-005  4.2650125e-007            
8.3172276e-005  4.2673603e-007            
8.3372209e-005  4.2705595e-007            
8.3572143e-005  4.275445e-007            
8.3772076e-005  4.2797514e-007            
8.3972009e-005  4.2814484e-007            
8.4171943e-005  4.2837915e-007            
8.4371876e-005  4.2876928e-007            
8.4571809e-005  4.2946434e-007            
8.4771743e-005  4.2996318e-007            
8.4971676e-005  4.3044246e-007            
8.5171609e-005  4.3086369e-007            
8.5371543e-005  4.3144896e-007            
8.5571476e-005  4.3234433e-007            
8.5771409e-005  4.3321631e-007            
8.5971343e-005  4.3409916e-007            
8.6171276e-005  4.3490862e-007            
8.637121e-005  4.3600016e-007            
8.6571143e-005  4.3694117e-007            
8.6771076e-005  4.3793475e-007            
8.697101e-005  4.3885957e-007            
8.7170943e-005  4.4007028e-007            
8.7370876e-005  4.4125363e-007            
8.757081e-005  4.4224219e-007            
8.7770743e-005  4.4323027e-007            
8.7970676e-005  4.4423381e-007            
8.817061e-005  4.4543206e-007            
8.8370543e-005  4.4659487e-007            
8.8570476e-005  4.4763185e-007            
8.877041e-005  4.487717e-007            
8.8970343e-005  4.4985509e-007            
8.9170277e-005  4.5095209e-007            
8.937021e-005  4.5208842e-007            
8.9570143e-005  4.531495e-007            
8.9770077e-005  4.5429648e-007            
8.997001e-005  4.5558542e-007            
9.0169943e-005  4.567107e-007            
9.0369877e-005  4.5811121e-007            
9.056981e-005  4.5948121e-007            
9.0769743e-005  4.6089319e-007            
9.0969677e-005  4.6228963e-007            
9.116961e-005  4.6348955e-007            
9.1369543e-005  4.6494647e-007            
9.1569477e-005  4.6627143e-007            
9.176941e-005  4.6770054e-007            
9.1969344e-005  4.6903041e-007            
9.2169277e-005  4.7044839e-007            
9.236921e-005  4.7179227e-007            
9.2569144e-005  4.7317007e-007            
