Surface Profile             
x       y           
[m]     [m]         
0  -6.820066e-009            
1.9993336e-007  -9.8676712e-009            
3.9986671e-007  -1.2385855e-008            
5.9980007e-007  -1.4254853e-008            
7.9973342e-007  -1.60944e-008            
9.9966678e-007  -1.7593199e-008            
1.1996001e-006  -1.891773e-008            
1.3995335e-006  -2.0415753e-008            
1.5994668e-006  -2.2239349e-008            
1.7994002e-006  -2.4052193e-008            
1.9993336e-006  -2.60196e-008            
2.1992669e-006  -2.7975886e-008            
2.3992003e-006  -2.9851402e-008            
2.5991336e-006  -3.1488056e-008            
2.799067e-006  -3.308949e-008            
2.9990003e-006  -3.4731508e-008            
3.1989337e-006  -3.6570786e-008            
3.398867e-006  -3.8104565e-008            
3.5988004e-006  -3.9304076e-008            
3.7987338e-006  -4.0321791e-008            
3.9986671e-006  -4.1448698e-008            
4.1986005e-006  -4.273333e-008            
4.3985338e-006  -4.3758401e-008            
4.5984672e-006  -4.4527639e-008            
4.7984005e-006  -4.4956383e-008            
4.9983339e-006  -4.5503178e-008            
5.1982672e-006  -4.5818132e-008            
5.3982006e-006  -4.6107158e-008            
5.598134e-006  -4.6461293e-008            
5.7980673e-006  -4.6690069e-008            
5.9980007e-006  -4.6653496e-008            
6.197934e-006  -4.6357338e-008            
6.3978674e-006  -4.605278e-008            
6.5978007e-006  -4.6141819e-008            
6.7977341e-006  -4.5876848e-008            
6.9976674e-006  -4.5335532e-008            
7.1976008e-006  -4.4545503e-008            
7.3975342e-006  -4.3711399e-008            
7.5974675e-006  -4.3188581e-008            
7.7974009e-006  -4.26114e-008            
7.9973342e-006  -4.1667131e-008            
8.1972676e-006  -4.0603294e-008            
8.3972009e-006  -3.9363171e-008            
8.5971343e-006  -3.8068044e-008            
8.7970676e-006  -3.6876834e-008            
8.997001e-006  -3.555941e-008            
9.1969344e-006  -3.4281961e-008            
9.3968677e-006  -3.2798499e-008            
9.5968011e-006  -3.1225519e-008            
9.7967344e-006  -2.950715e-008            
9.9966678e-006  -2.7965046e-008            
1.0196601e-005  -2.6555625e-008            
1.0396534e-005  -2.5104103e-008            
1.0596468e-005  -2.329094e-008            
1.0796401e-005  -2.1278256e-008            
1.0996335e-005  -1.9394276e-008            
1.1196268e-005  -1.7498019e-008            
1.1396201e-005  -1.5719982e-008            
1.1596135e-005  -1.3686737e-008            
1.1796068e-005  -1.166464e-008            
1.1996001e-005  -9.535313e-009            
1.2195935e-005  -7.3079948e-009            
1.2395868e-005  -5.1075e-009            
1.2595801e-005  -2.7360425e-009            
1.2795735e-005  -4.2035428e-010            
1.2995668e-005  1.9484783e-009            
1.3195601e-005  4.6148514e-009            
1.3395535e-005  7.1970588e-009            
1.3595468e-005  9.488307e-009            
1.3795402e-005  1.1992435e-008            
1.3995335e-005  1.4366382e-008            
1.4195268e-005  1.6923969e-008            
1.4395202e-005  1.9333459e-008            
1.4595135e-005  2.172849e-008            
1.4795068e-005  2.4058508e-008            
1.4995002e-005  2.6253578e-008            
1.5194935e-005  2.860469e-008            
1.5394868e-005  3.0626446e-008            
1.5594802e-005  3.2790396e-008            
1.5794735e-005  3.5170906e-008            
1.5994668e-005  3.7455861e-008            
1.6194602e-005  3.9383678e-008            
1.6394535e-005  4.1376691e-008            
1.6594469e-005  4.3464449e-008            
1.6794402e-005  4.5923294e-008            
1.6994335e-005  4.8395794e-008            
1.7194269e-005  5.0669138e-008            
1.7394202e-005  5.2855063e-008            
1.7594135e-005  5.5150592e-008            
1.7794069e-005  5.735174e-008            
1.7994002e-005  5.9461982e-008            
1.8193935e-005  6.1561932e-008            
1.8393869e-005  6.3959674e-008            
1.8593802e-005  6.6216471e-008            
1.8793735e-005  6.835116e-008            
1.8993669e-005  7.0259691e-008            
1.9193602e-005  7.217196e-008            
1.9393535e-005  7.435105e-008            
1.9593469e-005  7.6628867e-008            
1.9793402e-005  7.8381199e-008            
1.9993336e-005  8.024327e-008            
2.0193269e-005  8.20398e-008            
2.0393202e-005  8.4043802e-008            
2.0593136e-005  8.6161096e-008            
2.0793069e-005  8.8015261e-008            
2.0993002e-005  8.9935419e-008            
2.1192936e-005  9.177065e-008            
2.1392869e-005  9.3429804e-008            
2.1592802e-005  9.5227629e-008            
2.1792736e-005  9.7083636e-008            
2.1992669e-005  9.9141628e-008            
2.2192602e-005  1.0121463e-007            
2.2392536e-005  1.0292943e-007            
2.2592469e-005  1.0472771e-007            
2.2792403e-005  1.0683837e-007            
2.2992336e-005  1.0907336e-007            
2.3192269e-005  1.111314e-007            
2.3392203e-005  1.1283901e-007            
2.3592136e-005  1.1460992e-007            
2.3792069e-005  1.1665827e-007            
2.3992003e-005  1.1876383e-007            
2.4191936e-005  1.2072619e-007            
2.4391869e-005  1.2263544e-007            
2.4591803e-005  1.2488618e-007            
2.4791736e-005  1.2674635e-007            
2.4991669e-005  1.2848409e-007            
2.5191603e-005  1.3033583e-007            
2.5391536e-005  1.3244484e-007            
2.5591469e-005  1.3456934e-007            
2.5791403e-005  1.3669642e-007            
2.5991336e-005  1.3855074e-007            
2.619127e-005  1.4048198e-007            
2.6391203e-005  1.426652e-007            
2.6591136e-005  1.4504469e-007            
2.679107e-005  1.4740516e-007            
2.6991003e-005  1.4958252e-007            
2.7190936e-005  1.5155122e-007            
2.739087e-005  1.5388134e-007            
2.7590803e-005  1.5633979e-007            
2.7790736e-005  1.5883931e-007            
2.799067e-005  1.6125168e-007            
2.8190603e-005  1.635176e-007            
2.8390536e-005  1.6586034e-007            
2.859047e-005  1.6813734e-007            
2.8790403e-005  1.7034485e-007            
2.8990337e-005  1.7265738e-007            
2.919027e-005  1.7498895e-007            
2.9390203e-005  1.7744059e-007            
2.9590137e-005  1.796349e-007            
2.979007e-005  1.8159692e-007            
2.9990003e-005  1.8400113e-007            
3.0189937e-005  1.8654577e-007            
3.038987e-005  1.8895772e-007            
3.0589803e-005  1.9120883e-007            
3.0789737e-005  1.9332089e-007            
3.098967e-005  1.95743e-007            
3.1189603e-005  1.9811545e-007            
3.1389537e-005  2.0044359e-007            
3.158947e-005  2.026146e-007            
3.1789404e-005  2.0476497e-007            
3.1989337e-005  2.0691017e-007            
3.218927e-005  2.0911708e-007            
3.2389204e-005  2.1126689e-007            
3.2589137e-005  2.1360008e-007            
3.278907e-005  2.158174e-007            
3.2989004e-005  2.1784996e-007            
3.3188937e-005  2.1987971e-007            
3.338887e-005  2.2178205e-007            
3.3588804e-005  2.2393749e-007            
3.3788737e-005  2.2607781e-007            
3.398867e-005  2.2786445e-007            
3.4188604e-005  2.2946988e-007            
3.4388537e-005  2.3123283e-007            
3.458847e-005  2.3301275e-007            
3.4788404e-005  2.3470682e-007            
3.4988337e-005  2.363109e-007            
3.5188271e-005  2.3788585e-007            
3.5388204e-005  2.3968011e-007            
3.5588137e-005  2.4112786e-007            
3.5788071e-005  2.4266842e-007            
3.5988004e-005  2.4407152e-007            
3.6187937e-005  2.4578252e-007            
3.6387871e-005  2.4745943e-007            
3.6587804e-005  2.4901473e-007            
3.6787737e-005  2.5051709e-007            
3.6987671e-005  2.5199264e-007            
3.7187604e-005  2.5366298e-007            
3.7387537e-005  2.555144e-007            
3.7587471e-005  2.571216e-007            
3.7787404e-005  2.5866049e-007            
3.7987338e-005  2.6008094e-007            
3.8187271e-005  2.6171431e-007            
3.8387204e-005  2.6342803e-007            
3.8587138e-005  2.6507147e-007            
3.8787071e-005  2.6661864e-007            
3.8987004e-005  2.6826142e-007            
3.9186938e-005  2.6970982e-007            
3.9386871e-005  2.7110825e-007            
3.9586804e-005  2.723818e-007            
3.9786738e-005  2.7391722e-007            
3.9986671e-005  2.7552583e-007            
4.0186604e-005  2.7701888e-007            
4.0386538e-005  2.7847632e-007            
4.0586471e-005  2.7980122e-007            
4.0786405e-005  2.8118272e-007            
4.0986338e-005  2.8265302e-007            
4.1186271e-005  2.8412583e-007            
4.1386205e-005  2.8542637e-007            
4.1586138e-005  2.8663481e-007            
4.1786071e-005  2.8783218e-007            
4.1986005e-005  2.8904179e-007            
4.2185938e-005  2.9040539e-007            
4.2385871e-005  2.9157003e-007            
4.2585805e-005  2.9283191e-007            
4.2785738e-005  2.9382663e-007            
4.2985671e-005  2.9463151e-007            
4.3185605e-005  2.9562548e-007            
4.3385538e-005  2.966151e-007            
4.3585471e-005  2.9770564e-007            
4.3785405e-005  2.9850059e-007            
4.3985338e-005  2.9923809e-007            
4.4185272e-005  2.9990025e-007            
4.4385205e-005  3.0062356e-007            
4.4585138e-005  3.0139296e-007            
4.4785072e-005  3.0212433e-007            
4.4985005e-005  3.0285061e-007            
4.5184938e-005  3.0338283e-007            
4.5384872e-005  3.0384924e-007            
4.5584805e-005  3.0429928e-007            
4.5784738e-005  3.0496803e-007            
4.5984672e-005  3.0559935e-007            
4.6184605e-005  3.0629784e-007            
4.6384538e-005  3.0670248e-007            
4.6584472e-005  3.0702037e-007            
4.6784405e-005  3.0758024e-007            
4.6984339e-005  3.0824536e-007            
4.7184272e-005  3.0886048e-007            
4.7384205e-005  3.0941592e-007            
4.7584139e-005  3.0986589e-007            
4.7784072e-005  3.1028213e-007            
4.7984005e-005  3.108757e-007            
4.8183939e-005  3.1136908e-007            
4.8383872e-005  3.1206213e-007            
4.8583805e-005  3.1265925e-007            
4.8783739e-005  3.1310735e-007            
4.8983672e-005  3.1347411e-007            
4.9183605e-005  3.1388923e-007            
4.9383539e-005  3.146298e-007            
4.9583472e-005  3.1526577e-007            
4.9783406e-005  3.1568355e-007            
4.9983339e-005  3.1620765e-007            
5.0183272e-005  3.1661781e-007            
5.0383206e-005  3.17276e-007            
5.0583139e-005  3.1801757e-007            
5.0783072e-005  3.1867778e-007            
5.0983006e-005  3.1937043e-007            
5.1182939e-005  3.1984939e-007            
5.1382872e-005  3.2022616e-007            
5.1582806e-005  3.2053667e-007            
5.1782739e-005  3.2118887e-007            
5.1982672e-005  3.2191836e-007            
5.2182606e-005  3.2244521e-007            
5.2382539e-005  3.2275966e-007            
5.2582472e-005  3.2310073e-007            
5.2782406e-005  3.2348655e-007            
5.2982339e-005  3.2402298e-007            
5.3182273e-005  3.2442337e-007            
5.3382206e-005  3.2468562e-007            
5.3582139e-005  3.250405e-007            
5.3782073e-005  3.2532969e-007            
5.3982006e-005  3.2569367e-007            
5.4181939e-005  3.2595066e-007            
5.4381873e-005  3.2606646e-007            
5.4581806e-005  3.2640024e-007            
5.4781739e-005  3.2683951e-007            
5.4981673e-005  3.2700163e-007            
5.5181606e-005  3.2713012e-007            
5.5381539e-005  3.273457e-007            
5.5581473e-005  3.2761915e-007            
5.5781406e-005  3.2796768e-007            
5.598134e-005  3.2818317e-007            
5.6181273e-005  3.2843332e-007            
5.6381206e-005  3.2866327e-007            
5.658114e-005  3.2914291e-007            
5.6781073e-005  3.2975548e-007            
5.6981006e-005  3.30194e-007            
5.718094e-005  3.3072453e-007            
5.7380873e-005  3.3129955e-007            
5.7580806e-005  3.3186592e-007            
5.778074e-005  3.3242911e-007            
5.7980673e-005  3.3301544e-007            
5.8180606e-005  3.3366135e-007            
5.838054e-005  3.3433073e-007            
5.8580473e-005  3.3481234e-007            
5.8780407e-005  3.3536583e-007            
5.898034e-005  3.3585942e-007            
5.9180273e-005  3.3641429e-007            
5.9380207e-005  3.3720857e-007            
5.958014e-005  3.3778599e-007            
5.9780073e-005  3.3851181e-007            
5.9980007e-005  3.3923671e-007            
6.017994e-005  3.4010679e-007            
6.0379873e-005  3.4094134e-007            
6.0579807e-005  3.4182476e-007            
6.077974e-005  3.4263018e-007            
6.0979673e-005  3.435546e-007            
6.1179607e-005  3.4442445e-007            
6.137954e-005  3.4526351e-007            
6.1579473e-005  3.4591657e-007            
6.1779407e-005  3.4683053e-007            
6.197934e-005  3.4796195e-007            
6.2179274e-005  3.4887044e-007            
6.2379207e-005  3.4941779e-007            
6.257914e-005  3.5004223e-007            
6.2779074e-005  3.5085759e-007            
6.2979007e-005  3.5180554e-007            
6.317894e-005  3.5249692e-007            
6.3378874e-005  3.5298304e-007            
6.3578807e-005  3.5350708e-007            
6.377874e-005  3.5420288e-007            
6.3978674e-005  3.5466917e-007            
6.4178607e-005  3.5527448e-007            
6.437854e-005  3.5590925e-007            
6.4578474e-005  3.5652267e-007            
6.4778407e-005  3.5693929e-007            
6.4978341e-005  3.572111e-007            
6.5178274e-005  3.5754746e-007            
6.5378207e-005  3.5796283e-007            
6.5578141e-005  3.5849531e-007            
6.5778074e-005  3.588997e-007            
6.5978007e-005  3.5923674e-007            
6.6177941e-005  3.5960438e-007            
6.6377874e-005  3.5990931e-007            
6.6577807e-005  3.6027879e-007            
6.6777741e-005  3.6069056e-007            
6.6977674e-005  3.6072134e-007            
6.7177607e-005  3.6099596e-007            
6.7377541e-005  3.6123675e-007            
6.7577474e-005  3.6150481e-007            
6.7777407e-005  3.6175993e-007            
6.7977341e-005  3.6199939e-007            
6.8177274e-005  3.6222019e-007            
6.8377208e-005  3.6236846e-007            
6.8577141e-005  3.6250268e-007            
6.8777074e-005  3.6278654e-007            
6.8977008e-005  3.6295525e-007            
6.9176941e-005  3.6304974e-007            
6.9376874e-005  3.6316976e-007            
6.9576808e-005  3.6313417e-007            
6.9776741e-005  3.6333945e-007            
6.9976674e-005  3.6350717e-007            
7.0176608e-005  3.6354525e-007            
7.0376541e-005  3.6350703e-007            
7.0576474e-005  3.6358741e-007            
7.0776408e-005  3.6357892e-007            
7.0976341e-005  3.6354171e-007            
7.1176275e-005  3.6351151e-007            
7.1376208e-005  3.6368855e-007            
7.1576141e-005  3.6372204e-007            
7.1776075e-005  3.6366602e-007            
7.1976008e-005  3.6360502e-007            
7.2175941e-005  3.6371997e-007            
7.2375875e-005  3.6387385e-007            
7.2575808e-005  3.6407989e-007            
7.2775741e-005  3.640343e-007            
7.2975675e-005  3.63922e-007            
7.3175608e-005  3.6390556e-007            
7.3375541e-005  3.6407928e-007            
7.3575475e-005  3.642533e-007            
7.3775408e-005  3.6434611e-007            
7.3975342e-005  3.6442988e-007            
7.4175275e-005  3.6441111e-007            
7.4375208e-005  3.6430105e-007            
7.4575142e-005  3.6445473e-007            
7.4775075e-005  3.6453881e-007            
7.4975008e-005  3.6479174e-007            
7.5174942e-005  3.6485433e-007            
7.5374875e-005  3.6472309e-007            
7.5574808e-005  3.6489568e-007            
7.5774742e-005  3.6500387e-007            
7.5974675e-005  3.6510557e-007            
7.6174608e-005  3.650789e-007            
7.6374542e-005  3.6488391e-007            
7.6574475e-005  3.6496747e-007            
7.6774408e-005  3.6500114e-007            
7.6974342e-005  3.6484078e-007            
7.7174275e-005  3.6456984e-007            
7.7374209e-005  3.6450767e-007            
7.7574142e-005  3.6436709e-007            
7.7774075e-005  3.6441586e-007            
7.7974009e-005  3.640403e-007            
7.8173942e-005  3.6365458e-007            
7.8373875e-005  3.6348612e-007            
7.8573809e-005  3.6337187e-007            
7.8773742e-005  3.6323251e-007            
7.8973675e-005  3.6280003e-007            
7.9173609e-005  3.6253142e-007            
7.9373542e-005  3.6223039e-007            
7.9573475e-005  3.6186303e-007            
7.9773409e-005  3.6139798e-007            
7.9973342e-005  3.609298e-007            
8.0173276e-005  3.6067911e-007            
8.0373209e-005  3.604453e-007            
8.0573142e-005  3.600416e-007            
8.0773076e-005  3.5937114e-007            
8.0973009e-005  3.5879493e-007            
8.1172942e-005  3.5841172e-007            
8.1372876e-005  3.5816555e-007            
8.1572809e-005  3.5749609e-007            
8.1772742e-005  3.5660035e-007            
8.1972676e-005  3.5586934e-007            
8.2172609e-005  3.5506742e-007            
8.2372542e-005  3.5442541e-007            
8.2572476e-005  3.5369733e-007            
8.2772409e-005  3.5292969e-007            
8.2972343e-005  3.5224368e-007            
8.3172276e-005  3.5152641e-007            
8.3372209e-005  3.5048445e-007            
8.3572143e-005  3.4976187e-007            
8.3772076e-005  3.4895055e-007            
8.3972009e-005  3.4822952e-007            
8.4171943e-005  3.4728385e-007            
8.4371876e-005  3.4604903e-007            
8.4571809e-005  3.4508837e-007            
8.4771743e-005  3.4420901e-007            
8.4971676e-005  3.4326995e-007            
8.5171609e-005  3.4210475e-007            
8.5371543e-005  3.4118349e-007            
8.5571476e-005  3.4017581e-007            
8.5771409e-005  3.3919358e-007            
8.5971343e-005  3.3823244e-007            
8.6171276e-005  3.3731721e-007            
8.637121e-005  3.3635966e-007            
8.6571143e-005  3.3547267e-007            
8.6771076e-005  3.3455772e-007            
8.697101e-005  3.3358207e-007            
8.7170943e-005  3.3282936e-007            
8.7370876e-005  3.3200521e-007            
8.757081e-005  3.3111732e-007            
8.7770743e-005  3.3021188e-007            
8.7970676e-005  3.2896606e-007            
8.817061e-005  3.282732e-007            
8.8370543e-005  3.2749983e-007            
8.8570476e-005  3.2666835e-007            
8.877041e-005  3.2587866e-007            
8.8970343e-005  3.2496957e-007            
8.9170277e-005  3.2413233e-007            
8.937021e-005  3.2356269e-007            
8.9570143e-005  3.2278534e-007            
8.9770077e-005  3.219679e-007            
8.997001e-005  3.2104724e-007            
9.0169943e-005  3.2010598e-007            
9.0369877e-005  3.1913164e-007            
9.056981e-005  3.1817339e-007            
9.0769743e-005  3.1711815e-007            
9.0969677e-005  3.1618679e-007            
9.116961e-005  3.1514749e-007            
9.1369543e-005  3.1411796e-007            
9.1569477e-005  3.1282808e-007            
9.176941e-005  3.1163103e-007            
9.1969344e-005  3.1077551e-007            
9.2169277e-005  3.0996387e-007            
9.236921e-005  3.0883772e-007            
9.2569144e-005  3.0768251e-007            
