Surface Profile             
x       y           
[m]     [m]         
0  2.2293796e-009            
1.9993336e-007  2.6899246e-009            
3.9986671e-007  3.1285203e-009            
5.9980007e-007  3.408131e-009            
7.9973342e-007  3.681437e-009            
9.9966678e-007  4.1260963e-009            
1.1996001e-006  4.5705066e-009            
1.3995335e-006  4.9172142e-009            
1.5994668e-006  5.3697494e-009            
1.7994002e-006  5.8127436e-009            
1.9993336e-006  6.493946e-009            
2.1992669e-006  6.9829247e-009            
2.3992003e-006  7.6741061e-009            
2.5991336e-006  8.4327495e-009            
2.799067e-006  8.9748557e-009            
2.9990003e-006  9.7284768e-009            
3.1989337e-006  1.0442765e-008            
3.398867e-006  1.1250755e-008            
3.5988004e-006  1.1922816e-008            
3.7987338e-006  1.2633573e-008            
3.9986671e-006  1.3141541e-008            
4.1986005e-006  1.3856039e-008            
4.3985338e-006  1.4709139e-008            
4.5984672e-006  1.5504336e-008            
4.7984005e-006  1.6156694e-008            
4.9983339e-006  1.6819198e-008            
5.1982672e-006  1.7644173e-008            
5.3982006e-006  1.8203346e-008            
5.598134e-006  1.8854906e-008            
5.7980673e-006  1.9365477e-008            
5.9980007e-006  2.0057189e-008            
6.197934e-006  2.0956304e-008            
6.3978674e-006  2.1630311e-008            
6.5978007e-006  2.2207952e-008            
6.7977341e-006  2.2949716e-008            
6.9976674e-006  2.3840054e-008            
7.1976008e-006  2.4834099e-008            
7.3975342e-006  2.5828404e-008            
7.5974675e-006  2.673556e-008            
7.7974009e-006  2.7897843e-008            
7.9973342e-006  2.914362e-008            
8.1972676e-006  3.0416572e-008            
8.3972009e-006  3.1584143e-008            
8.5971343e-006  3.2716635e-008            
8.7970676e-006  3.4074694e-008            
8.997001e-006  3.5390698e-008            
9.1969344e-006  3.6596811e-008            
9.3968677e-006  3.7722186e-008            
9.5968011e-006  3.8795621e-008            
9.7967344e-006  4.0076859e-008            
9.9966678e-006  4.1299547e-008            
1.0196601e-005  4.238809e-008            
1.0396534e-005  4.3658931e-008            
1.0596468e-005  4.4795485e-008            
1.0796401e-005  4.5998945e-008            
1.0996335e-005  4.730619e-008            
1.1196268e-005  4.8525977e-008            
1.1396201e-005  4.9757768e-008            
1.1596135e-005  5.0997672e-008            
1.1796068e-005  5.218279e-008            
1.1996001e-005  5.3588239e-008            
1.2195935e-005  5.4964115e-008            
1.2395868e-005  5.6352803e-008            
1.2595801e-005  5.78611e-008            
1.2795735e-005  5.9259762e-008            
1.2995668e-005  6.0893597e-008            
1.3195601e-005  6.2392066e-008            
1.3395535e-005  6.395092e-008            
1.3595468e-005  6.5520834e-008            
1.3795402e-005  6.7150247e-008            
1.3995335e-005  6.8784679e-008            
1.4195268e-005  7.0467757e-008            
1.4395202e-005  7.1907489e-008            
1.4595135e-005  7.3523266e-008            
1.4795068e-005  7.5098604e-008            
1.4995002e-005  7.6710474e-008            
1.5194935e-005  7.8315639e-008            
1.5394868e-005  7.9725183e-008            
1.5594802e-005  8.134088e-008            
1.5794735e-005  8.2913549e-008            
1.5994668e-005  8.4505325e-008            
1.6194602e-005  8.5824653e-008            
1.6394535e-005  8.7190352e-008            
1.6594469e-005  8.8744489e-008            
1.6794402e-005  9.0308468e-008            
1.6994335e-005  9.1732749e-008            
1.7194269e-005  9.3054194e-008            
1.7394202e-005  9.437391e-008            
1.7594135e-005  9.5730341e-008            
1.7794069e-005  9.7354236e-008            
1.7994002e-005  9.8991157e-008            
1.8193935e-005  1.0056912e-007            
1.8393869e-005  1.0210484e-007            
1.8593802e-005  1.0356688e-007            
1.8793735e-005  1.0509946e-007            
1.8993669e-005  1.0651582e-007            
1.9193602e-005  1.0802327e-007            
1.9393535e-005  1.0944137e-007            
1.9593469e-005  1.1074867e-007            
1.9793402e-005  1.1211397e-007            
1.9993336e-005  1.1363021e-007            
2.0193269e-005  1.1516925e-007            
2.0393202e-005  1.1671281e-007            
2.0593136e-005  1.1794509e-007            
2.0793069e-005  1.1938644e-007            
2.0993002e-005  1.2082414e-007            
2.1192936e-005  1.2219516e-007            
2.1392869e-005  1.2355026e-007            
2.1592802e-005  1.2486434e-007            
2.1792736e-005  1.2635874e-007            
2.1992669e-005  1.2791169e-007            
2.2192602e-005  1.2917755e-007            
2.2392536e-005  1.3063564e-007            
2.2592469e-005  1.3216512e-007            
2.2792403e-005  1.3379694e-007            
2.2992336e-005  1.3541642e-007            
2.3192269e-005  1.369549e-007            
2.3392203e-005  1.386514e-007            
2.3592136e-005  1.4048529e-007            
2.3792069e-005  1.4234435e-007            
2.3992003e-005  1.4416115e-007            
2.4191936e-005  1.4585158e-007            
2.4391869e-005  1.4755453e-007            
2.4591803e-005  1.495748e-007            
2.4791736e-005  1.5158755e-007            
2.4991669e-005  1.5366776e-007            
2.5191603e-005  1.5570061e-007            
2.5391536e-005  1.5784421e-007            
2.5591469e-005  1.6014817e-007            
2.5791403e-005  1.6246022e-007            
2.5991336e-005  1.6474945e-007            
2.619127e-005  1.6713789e-007            
2.6391203e-005  1.6946613e-007            
2.6591136e-005  1.716956e-007            
2.679107e-005  1.73993e-007            
2.6991003e-005  1.762958e-007            
2.7190936e-005  1.7876001e-007            
2.739087e-005  1.8123396e-007            
2.7590803e-005  1.8382718e-007            
2.7790736e-005  1.8671392e-007            
2.799067e-005  1.8957258e-007            
2.8190603e-005  1.9292788e-007            
2.8390536e-005  1.9607239e-007            
2.859047e-005  1.992135e-007            
2.8790403e-005  2.0238912e-007            
2.8990337e-005  2.056249e-007            
2.919027e-005  2.0910351e-007            
2.9390203e-005  2.1218505e-007            
2.9590137e-005  2.1521071e-007            
2.979007e-005  2.1810815e-007            
2.9990003e-005  2.2106991e-007            
3.0189937e-005  2.2375165e-007            
3.038987e-005  2.2643089e-007            
3.0589803e-005  2.2900086e-007            
3.0789737e-005  2.3148358e-007            
3.098967e-005  2.3373436e-007            
3.1189603e-005  2.3572836e-007            
3.1389537e-005  2.377336e-007            
3.158947e-005  2.3991318e-007            
3.1789404e-005  2.4219375e-007            
3.1989337e-005  2.4440796e-007            
3.218927e-005  2.4646334e-007            
3.2389204e-005  2.4857646e-007            
3.2589137e-005  2.5094966e-007            
3.278907e-005  2.5346909e-007            
3.2989004e-005  2.5589671e-007            
3.3188937e-005  2.5816721e-007            
3.338887e-005  2.6023358e-007            
3.3588804e-005  2.6247891e-007            
3.3788737e-005  2.6455554e-007            
3.398867e-005  2.6694741e-007            
3.4188604e-005  2.6920898e-007            
3.4388537e-005  2.7135108e-007            
3.458847e-005  2.7337314e-007            
3.4788404e-005  2.7532382e-007            
3.4988337e-005  2.7753432e-007            
3.5188271e-005  2.7952379e-007            
3.5388204e-005  2.8149642e-007            
3.5588137e-005  2.8361945e-007            
3.5788071e-005  2.855409e-007            
3.5988004e-005  2.875516e-007            
3.6187937e-005  2.8954953e-007            
3.6387871e-005  2.9148973e-007            
3.6587804e-005  2.9356464e-007            
3.6787737e-005  2.9558487e-007            
3.6987671e-005  2.9770929e-007            
3.7187604e-005  2.9974296e-007            
3.7387537e-005  3.0198111e-007            
3.7587471e-005  3.0433478e-007            
3.7787404e-005  3.0651673e-007            
3.7987338e-005  3.085397e-007            
3.8187271e-005  3.1075711e-007            
3.8387204e-005  3.1280138e-007            
3.8587138e-005  3.1486378e-007            
3.8787071e-005  3.1716641e-007            
3.8987004e-005  3.1938746e-007            
3.9186938e-005  3.2162574e-007            
3.9386871e-005  3.2380224e-007            
3.9586804e-005  3.256854e-007            
3.9786738e-005  3.2785404e-007            
3.9986671e-005  3.3011097e-007            
4.0186604e-005  3.3218844e-007            
4.0386538e-005  3.3428283e-007            
4.0586471e-005  3.3636995e-007            
4.0786405e-005  3.3858949e-007            
4.0986338e-005  3.4068665e-007            
4.1186271e-005  3.4275719e-007            
4.1386205e-005  3.4503896e-007            
4.1586138e-005  3.4727173e-007            
4.1786071e-005  3.4982211e-007            
4.1986005e-005  3.5204026e-007            
4.2185938e-005  3.5426476e-007            
4.2385871e-005  3.5669346e-007            
4.2585805e-005  3.5908489e-007            
4.2785738e-005  3.6151062e-007            
4.2985671e-005  3.6386347e-007            
4.3185605e-005  3.659757e-007            
4.3385538e-005  3.6834846e-007            
4.3585471e-005  3.707943e-007            
4.3785405e-005  3.7326893e-007            
4.3985338e-005  3.7564013e-007            
4.4185272e-005  3.7789573e-007            
4.4385205e-005  3.8026451e-007            
4.4585138e-005  3.825029e-007            
4.4785072e-005  3.8483751e-007            
4.4985005e-005  3.8708482e-007            
4.5184938e-005  3.8938129e-007            
4.5384872e-005  3.916979e-007            
4.5584805e-005  3.9373082e-007            
4.5784738e-005  3.9580024e-007            
4.5984672e-005  3.9809301e-007            
4.6184605e-005  4.0053631e-007            
4.6384538e-005  4.0295858e-007            
4.6584472e-005  4.0534129e-007            
4.6784405e-005  4.0761838e-007            
4.6984339e-005  4.0985087e-007            
4.7184272e-005  4.1218839e-007            
4.7384205e-005  4.1459743e-007            
4.7584139e-005  4.1729917e-007            
4.7784072e-005  4.1979594e-007            
4.7984005e-005  4.2204338e-007            
4.8183939e-005  4.2409834e-007            
4.8383872e-005  4.2630197e-007            
4.8583805e-005  4.2894395e-007            
4.8783739e-005  4.3160504e-007            
4.8983672e-005  4.34078e-007            
4.9183605e-005  4.3637937e-007            
4.9383539e-005  4.3853039e-007            
4.9583472e-005  4.406867e-007            
4.9783406e-005  4.4320467e-007            
4.9983339e-005  4.4557956e-007            
5.0183272e-005  4.480239e-007            
5.0383206e-005  4.501998e-007            
5.0583139e-005  4.520832e-007            
5.0783072e-005  4.5419884e-007            
5.0983006e-005  4.5642543e-007            
5.1182939e-005  4.5877436e-007            
5.1382872e-005  4.6103311e-007            
5.1582806e-005  4.6300276e-007            
5.1782739e-005  4.6489159e-007            
5.1982672e-005  4.6685793e-007            
5.2182606e-005  4.6903355e-007            
5.2382539e-005  4.7131706e-007            
5.2582472e-005  4.7349793e-007            
5.2782406e-005  4.754889e-007            
5.2982339e-005  4.77605e-007            
5.3182273e-005  4.79518e-007            
5.3382206e-005  4.8158956e-007            
5.3582139e-005  4.8371042e-007            
5.3782073e-005  4.8568594e-007            
5.3982006e-005  4.873798e-007            
5.4181939e-005  4.8889236e-007            
5.4381873e-005  4.9052774e-007            
5.4581806e-005  4.9228476e-007            
5.4781739e-005  4.9402872e-007            
5.4981673e-005  4.9568558e-007            
5.5181606e-005  4.9723131e-007            
5.5381539e-005  4.9880905e-007            
5.5581473e-005  5.0044511e-007            
5.5781406e-005  5.020912e-007            
5.598134e-005  5.0365537e-007            
5.6181273e-005  5.0527227e-007            
5.6381206e-005  5.0663716e-007            
5.658114e-005  5.0831003e-007            
5.6781073e-005  5.0991843e-007            
5.6981006e-005  5.1174868e-007            
5.718094e-005  5.1369041e-007            
5.7380873e-005  5.1538303e-007            
5.7580806e-005  5.1700072e-007            
5.778074e-005  5.1856326e-007            
5.7980673e-005  5.2017666e-007            
5.8180606e-005  5.2201875e-007            
5.838054e-005  5.2391333e-007            
5.8580473e-005  5.2557569e-007            
5.8780407e-005  5.2709648e-007            
5.898034e-005  5.2841087e-007            
5.9180273e-005  5.2997249e-007            
5.9380207e-005  5.3168372e-007            
5.958014e-005  5.3329226e-007            
5.9780073e-005  5.3479713e-007            
5.9980007e-005  5.3610102e-007            
6.017994e-005  5.3753139e-007            
6.0379873e-005  5.3872618e-007            
6.0579807e-005  5.4000806e-007            
6.077974e-005  5.4129644e-007            
6.0979673e-005  5.4258393e-007            
6.1179607e-005  5.4389028e-007            
6.137954e-005  5.4512001e-007            
6.1579473e-005  5.4626513e-007            
6.1779407e-005  5.4741159e-007            
6.197934e-005  5.4857673e-007            
6.2179274e-005  5.4989796e-007            
6.2379207e-005  5.5073674e-007            
6.257914e-005  5.5162739e-007            
6.2779074e-005  5.5261523e-007            
6.2979007e-005  5.5371709e-007            
6.317894e-005  5.5470378e-007            
6.3378874e-005  5.5573229e-007            
6.3578807e-005  5.5644594e-007            
6.377874e-005  5.5730042e-007            
6.3978674e-005  5.5796691e-007            
6.4178607e-005  5.5865624e-007            
6.437854e-005  5.5946698e-007            
6.4578474e-005  5.6026878e-007            
6.4778407e-005  5.6093123e-007            
6.4978341e-005  5.6151718e-007            
6.5178274e-005  5.6202589e-007            
6.5378207e-005  5.6258104e-007            
6.5578141e-005  5.6331753e-007            
6.5778074e-005  5.6399752e-007            
6.5978007e-005  5.6441285e-007            
6.6177941e-005  5.6470973e-007            
6.6377874e-005  5.650347e-007            
6.6577807e-005  5.6560274e-007            
6.6777741e-005  5.6612362e-007            
6.6977674e-005  5.6681604e-007            
6.7177607e-005  5.6731712e-007            
6.7377541e-005  5.6786241e-007            
6.7577474e-005  5.6824182e-007            
6.7777407e-005  5.6842653e-007            
6.7977341e-005  5.6892831e-007            
6.8177274e-005  5.6944431e-007            
6.8377208e-005  5.6992473e-007            
6.8577141e-005  5.7016774e-007            
6.8777074e-005  5.7029242e-007            
6.8977008e-005  5.7065843e-007            
6.9176941e-005  5.7115154e-007            
6.9376874e-005  5.715667e-007            
6.9576808e-005  5.719637e-007            
6.9776741e-005  5.7229518e-007            
6.9976674e-005  5.7246503e-007            
7.0176608e-005  5.7290255e-007            
7.0376541e-005  5.7316257e-007            
7.0576474e-005  5.7351842e-007            
7.0776408e-005  5.7389199e-007            
7.0976341e-005  5.7425367e-007            
7.1176275e-005  5.7460681e-007            
7.1376208e-005  5.7505922e-007            
7.1576141e-005  5.756878e-007            
7.1776075e-005  5.7647882e-007            
7.1976008e-005  5.7717039e-007            
7.2175941e-005  5.7779499e-007            
7.2375875e-005  5.7833001e-007            
7.2575808e-005  5.788059e-007            
7.2775741e-005  5.7976382e-007            
7.2975675e-005  5.8035787e-007            
7.3175608e-005  5.8080916e-007            
7.3375541e-005  5.8104806e-007            
7.3575475e-005  5.8123862e-007            
7.3775408e-005  5.8152627e-007            
7.3975342e-005  5.818317e-007            
7.4175275e-005  5.8213796e-007            
7.4375208e-005  5.8215234e-007            
7.4575142e-005  5.8210464e-007            
7.4775075e-005  5.8199118e-007            
7.4975008e-005  5.8203503e-007            
7.5174942e-005  5.8223471e-007            
7.5374875e-005  5.8261402e-007            
7.5574808e-005  5.8269534e-007            
7.5774742e-005  5.8264355e-007            
7.5974675e-005  5.8243203e-007            
7.6174608e-005  5.8245991e-007            
7.6374542e-005  5.828053e-007            
7.6574475e-005  5.8312629e-007            
7.6774408e-005  5.8307714e-007            
7.6974342e-005  5.8298677e-007            
7.7174275e-005  5.8273051e-007            
7.7374209e-005  5.8265422e-007            
7.7574142e-005  5.8265382e-007            
7.7774075e-005  5.8258103e-007            
7.7974009e-005  5.8230384e-007            
7.8173942e-005  5.8205399e-007            
7.8373875e-005  5.8154793e-007            
7.8573809e-005  5.8145642e-007            
7.8773742e-005  5.8137223e-007            
7.8973675e-005  5.8131523e-007            
7.9173609e-005  5.8105975e-007            
7.9373542e-005  5.8058414e-007            
7.9573475e-005  5.8021822e-007            
7.9773409e-005  5.8009185e-007            
7.9973342e-005  5.7986726e-007            
8.0173276e-005  5.7977139e-007            
8.0373209e-005  5.7943824e-007            
8.0573142e-005  5.790363e-007            
8.0773076e-005  5.7877209e-007            
8.0973009e-005  5.787338e-007            
8.1172942e-005  5.7860187e-007            
8.1372876e-005  5.7849098e-007            
8.1572809e-005  5.7836155e-007            
8.1772742e-005  5.7814547e-007            
8.1972676e-005  5.7803363e-007            
8.2172609e-005  5.7803036e-007            
8.2372542e-005  5.7801089e-007            
8.2572476e-005  5.782512e-007            
8.2772409e-005  5.7837759e-007            
8.2972343e-005  5.7825724e-007            
8.3172276e-005  5.7828788e-007            
8.3372209e-005  5.7844563e-007            
8.3572143e-005  5.7877632e-007            
8.3772076e-005  5.7917432e-007            
8.3972009e-005  5.7931209e-007            
8.4171943e-005  5.7934362e-007            
8.4371876e-005  5.7945678e-007            
8.4571809e-005  5.7966528e-007            
8.4771743e-005  5.8020978e-007            
8.4971676e-005  5.8084182e-007            
8.5171609e-005  5.8122782e-007            
8.5371543e-005  5.8163138e-007            
8.5571476e-005  5.8187658e-007            
8.5771409e-005  5.821752e-007            
8.5971343e-005  5.8267753e-007            
8.6171276e-005  5.8330415e-007            
8.637121e-005  5.8366631e-007            
8.6571143e-005  5.8398101e-007            
8.6771076e-005  5.8423093e-007            
8.697101e-005  5.8454557e-007            
8.7170943e-005  5.8500667e-007            
8.7370876e-005  5.8547592e-007            
8.757081e-005  5.8597846e-007            
8.7770743e-005  5.863377e-007            
8.7970676e-005  5.8657253e-007            
8.817061e-005  5.8681604e-007            
8.8370543e-005  5.8730015e-007            
8.8570476e-005  5.8810924e-007            
8.877041e-005  5.8868672e-007            
8.8970343e-005  5.8910747e-007            
8.9170277e-005  5.8939374e-007            
8.937021e-005  5.8975364e-007            
8.9570143e-005  5.9036299e-007            
8.9770077e-005  5.9088151e-007            
8.997001e-005  5.9147213e-007            
9.0169943e-005  5.9199023e-007            
9.0369877e-005  5.9229024e-007            
9.056981e-005  5.92642e-007            
9.0769743e-005  5.9312501e-007            
9.0969677e-005  5.9389212e-007            
9.116961e-005  5.9473611e-007            
9.1369543e-005  5.9521628e-007            
9.1569477e-005  5.9550256e-007            
9.176941e-005  5.9589585e-007            
9.1969344e-005  5.963351e-007            
9.2169277e-005  5.9705743e-007            
9.236921e-005  5.9774534e-007            
9.2569144e-005  5.9818467e-007            
9.2769077e-005  5.9875505e-007            
9.296901e-005  5.992196e-007            
