Surface Profile             
x       y           
[m]     [m]         
0  1.1942274e-009            
1.9993336e-007  5.7111252e-010            
3.9986671e-007  1.2704025e-010            
5.9980007e-007  -2.755568e-010            
7.9973342e-007  -6.1257288e-010            
9.9966678e-007  -6.8066648e-010            
1.1996001e-006  -7.9826449e-010            
1.3995335e-006  -1.0145603e-009            
1.5994668e-006  -1.4508445e-009            
1.7994002e-006  -1.748705e-009            
1.9993336e-006  -1.9887165e-009            
2.1992669e-006  -2.4696135e-009            
2.3992003e-006  -2.8755531e-009            
2.5991336e-006  -3.1724611e-009            
2.799067e-006  -3.4107623e-009            
2.9990003e-006  -3.9151598e-009            
3.1989337e-006  -4.5645166e-009            
3.398867e-006  -4.944071e-009            
3.5988004e-006  -5.3536231e-009            
3.7987338e-006  -5.7445194e-009            
3.9986671e-006  -6.3311215e-009            
4.1986005e-006  -6.9735803e-009            
4.3985338e-006  -7.2987803e-009            
4.5984672e-006  -7.4858793e-009            
4.7984005e-006  -8.0031068e-009            
4.9983339e-006  -8.7455325e-009            
5.1982672e-006  -9.4717254e-009            
5.3982006e-006  -1.0017078e-008            
5.598134e-006  -1.0577218e-008            
5.7980673e-006  -1.1250566e-008            
5.9980007e-006  -1.1943231e-008            
6.197934e-006  -1.2474028e-008            
6.3978674e-006  -1.3200861e-008            
6.5978007e-006  -1.4103053e-008            
6.7977341e-006  -1.5012172e-008            
6.9976674e-006  -1.5697693e-008            
7.1976008e-006  -1.6298557e-008            
7.3975342e-006  -1.6920676e-008            
7.5974675e-006  -1.7809492e-008            
7.7974009e-006  -1.8618636e-008            
7.9973342e-006  -1.9352628e-008            
8.1972676e-006  -2.0023686e-008            
8.3972009e-006  -2.0904986e-008            
8.5971343e-006  -2.1794643e-008            
8.7970676e-006  -2.2588625e-008            
8.997001e-006  -2.3630932e-008            
9.1969344e-006  -2.4385777e-008            
9.3968677e-006  -2.5372135e-008            
9.5968011e-006  -2.6201847e-008            
9.7967344e-006  -2.7165053e-008            
9.9966678e-006  -2.8104032e-008            
1.0196601e-005  -2.9066024e-008            
1.0396534e-005  -2.9967109e-008            
1.0596468e-005  -3.0975877e-008            
1.0796401e-005  -3.1815533e-008            
1.0996335e-005  -3.2863571e-008            
1.1196268e-005  -3.3682592e-008            
1.1396201e-005  -3.4626575e-008            
1.1596135e-005  -3.5453893e-008            
1.1796068e-005  -3.6200651e-008            
1.1996001e-005  -3.7084251e-008            
1.2195935e-005  -3.7980266e-008            
1.2395868e-005  -3.8815751e-008            
1.2595801e-005  -3.9710386e-008            
1.2795735e-005  -4.0328695e-008            
1.2995668e-005  -4.1226154e-008            
1.3195601e-005  -4.2116726e-008            
1.3395535e-005  -4.3069248e-008            
1.3595468e-005  -4.3723934e-008            
1.3795402e-005  -4.4492412e-008            
1.3995335e-005  -4.497168e-008            
1.4195268e-005  -4.5637782e-008            
1.4395202e-005  -4.6433675e-008            
1.4595135e-005  -4.7195555e-008            
1.4795068e-005  -4.7729941e-008            
1.4995002e-005  -4.8274409e-008            
1.5194935e-005  -4.8918803e-008            
1.5394868e-005  -4.9496792e-008            
1.5594802e-005  -5.0058821e-008            
1.5794735e-005  -5.0740315e-008            
1.5994668e-005  -5.1381237e-008            
1.6194602e-005  -5.1956116e-008            
1.6394535e-005  -5.245267e-008            
1.6594469e-005  -5.2984852e-008            
1.6794402e-005  -5.3670307e-008            
1.6994335e-005  -5.4419282e-008            
1.7194269e-005  -5.4908996e-008            
1.7394202e-005  -5.5448161e-008            
1.7594135e-005  -5.5856904e-008            
1.7794069e-005  -5.6442866e-008            
1.7994002e-005  -5.7338076e-008            
1.8193935e-005  -5.7999093e-008            
1.8393869e-005  -5.8810554e-008            
1.8593802e-005  -5.9339317e-008            
1.8793735e-005  -6.0143168e-008            
1.8993669e-005  -6.0953721e-008            
1.9193602e-005  -6.1769686e-008            
1.9393535e-005  -6.2569252e-008            
1.9593469e-005  -6.3513991e-008            
1.9793402e-005  -6.4390413e-008            
1.9993336e-005  -6.52325e-008            
2.0193269e-005  -6.596991e-008            
2.0393202e-005  -6.6853011e-008            
2.0593136e-005  -6.7936244e-008            
2.0793069e-005  -6.8857261e-008            
2.0993002e-005  -6.9822708e-008            
2.1192936e-005  -7.0674299e-008            
2.1392869e-005  -7.1801508e-008            
2.1592802e-005  -7.3000081e-008            
2.1792736e-005  -7.3987689e-008            
2.1992669e-005  -7.4908324e-008            
2.2192602e-005  -7.5942067e-008            
2.2392536e-005  -7.7129482e-008            
2.2592469e-005  -7.8368258e-008            
2.2792403e-005  -7.9472404e-008            
2.2992336e-005  -8.0537388e-008            
2.3192269e-005  -8.1555973e-008            
2.3392203e-005  -8.2646386e-008            
2.3592136e-005  -8.3594185e-008            
2.3792069e-005  -8.4638981e-008            
2.3992003e-005  -8.5478844e-008            
2.4191936e-005  -8.6639058e-008            
2.4391869e-005  -8.764684e-008            
2.4591803e-005  -8.8515914e-008            
2.4791736e-005  -8.9351196e-008            
2.4991669e-005  -9.0266041e-008            
2.5191603e-005  -9.1222351e-008            
2.5391536e-005  -9.2075008e-008            
2.5591469e-005  -9.2687674e-008            
2.5791403e-005  -9.3502266e-008            
2.5991336e-005  -9.4496137e-008            
2.619127e-005  -9.5356236e-008            
2.6391203e-005  -9.6246931e-008            
2.6591136e-005  -9.6813187e-008            
2.679107e-005  -9.7749077e-008            
2.6991003e-005  -9.8741117e-008            
2.7190936e-005  -9.9676029e-008            
2.739087e-005  -1.0038813e-007            
2.7590803e-005  -1.0116569e-007            
2.7790736e-005  -1.024332e-007            
2.799067e-005  -1.0348788e-007            
2.8190603e-005  -1.0437985e-007            
2.8390536e-005  -1.0523718e-007            
2.859047e-005  -1.0631221e-007            
2.8790403e-005  -1.0751323e-007            
2.8990337e-005  -1.0845979e-007            
2.919027e-005  -1.0940731e-007            
2.9390203e-005  -1.1047667e-007            
2.9590137e-005  -1.1177842e-007            
2.979007e-005  -1.127937e-007            
2.9990003e-005  -1.1387646e-007            
3.0189937e-005  -1.1484014e-007            
3.038987e-005  -1.1608395e-007            
3.0589803e-005  -1.1750395e-007            
3.0789737e-005  -1.1847893e-007            
3.098967e-005  -1.1952135e-007            
3.1189603e-005  -1.2061671e-007            
3.1389537e-005  -1.219417e-007            
3.158947e-005  -1.231002e-007            
3.1789404e-005  -1.2421202e-007            
3.1989337e-005  -1.2553023e-007            
3.218927e-005  -1.2709531e-007            
3.2389204e-005  -1.2835273e-007            
3.2589137e-005  -1.2965111e-007            
3.278907e-005  -1.3079167e-007            
3.2989004e-005  -1.3223624e-007            
3.3188937e-005  -1.3378319e-007            
3.338887e-005  -1.3507645e-007            
3.3588804e-005  -1.3639417e-007            
3.3788737e-005  -1.3776442e-007            
3.398867e-005  -1.3923131e-007            
3.4188604e-005  -1.405587e-007            
3.4388537e-005  -1.4166755e-007            
3.458847e-005  -1.4279483e-007            
3.4788404e-005  -1.4401806e-007            
3.4988337e-005  -1.4521778e-007            
3.5188271e-005  -1.4641904e-007            
3.5388204e-005  -1.4744337e-007            
3.5588137e-005  -1.4849861e-007            
3.5788071e-005  -1.4955829e-007            
3.5988004e-005  -1.5058175e-007            
3.6187937e-005  -1.5161812e-007            
3.6387871e-005  -1.5262636e-007            
3.6587804e-005  -1.5364624e-007            
3.6787737e-005  -1.5458774e-007            
3.6987671e-005  -1.5531997e-007            
3.7187604e-005  -1.5633771e-007            
3.7387537e-005  -1.574835e-007            
3.7587471e-005  -1.585471e-007            
3.7787404e-005  -1.5950321e-007            
3.7987338e-005  -1.6025234e-007            
3.8187271e-005  -1.6101932e-007            
3.8387204e-005  -1.6210224e-007            
3.8587138e-005  -1.6311156e-007            
3.8787071e-005  -1.6403169e-007            
3.8987004e-005  -1.6495337e-007            
3.9186938e-005  -1.6568843e-007            
3.9386871e-005  -1.6641593e-007            
3.9586804e-005  -1.6733659e-007            
3.9786738e-005  -1.6813995e-007            
3.9986671e-005  -1.6905154e-007            
4.0186604e-005  -1.6978467e-007            
4.0386538e-005  -1.7045368e-007            
4.0586471e-005  -1.7109339e-007            
4.0786405e-005  -1.7196604e-007            
4.0986338e-005  -1.7278427e-007            
4.1186271e-005  -1.7353117e-007            
4.1386205e-005  -1.7420621e-007            
4.1586138e-005  -1.7486688e-007            
4.1786071e-005  -1.7558602e-007            
4.1986005e-005  -1.7643528e-007            
4.2185938e-005  -1.7740752e-007            
4.2385871e-005  -1.7837212e-007            
4.2585805e-005  -1.790981e-007            
4.2785738e-005  -1.7959028e-007            
4.2985671e-005  -1.8037773e-007            
4.3185605e-005  -1.813179e-007            
4.3385538e-005  -1.8215276e-007            
4.3585471e-005  -1.8276638e-007            
4.3785405e-005  -1.8316403e-007            
4.3985338e-005  -1.8366297e-007            
4.4185272e-005  -1.8425809e-007            
4.4385205e-005  -1.8490525e-007            
4.4585138e-005  -1.8543062e-007            
4.4785072e-005  -1.8590161e-007            
4.4985005e-005  -1.8633261e-007            
4.5184938e-005  -1.8693401e-007            
4.5384872e-005  -1.8742726e-007            
4.5584805e-005  -1.8793797e-007            
4.5784738e-005  -1.8859689e-007            
4.5984672e-005  -1.8899242e-007            
4.6184605e-005  -1.8952898e-007            
4.6384538e-005  -1.8973236e-007            
4.6584472e-005  -1.9028031e-007            
4.6784405e-005  -1.9083122e-007            
4.6984339e-005  -1.9122247e-007            
4.7184272e-005  -1.9160671e-007            
4.7384205e-005  -1.9188189e-007            
4.7584139e-005  -1.9231225e-007            
4.7784072e-005  -1.9279097e-007            
4.7984005e-005  -1.9305813e-007            
4.8183939e-005  -1.9323955e-007            
4.8383872e-005  -1.936295e-007            
4.8583805e-005  -1.9405996e-007            
4.8783739e-005  -1.9436062e-007            
4.8983672e-005  -1.9469673e-007            
4.9183605e-005  -1.9493694e-007            
4.9383539e-005  -1.9553677e-007            
4.9583472e-005  -1.9610896e-007            
4.9783406e-005  -1.9661768e-007            
4.9983339e-005  -1.9699948e-007            
5.0183272e-005  -1.9727906e-007            
5.0383206e-005  -1.9782778e-007            
5.0583139e-005  -1.9829084e-007            
5.0783072e-005  -1.986839e-007            
5.0983006e-005  -1.9919269e-007            
5.1182939e-005  -1.9973295e-007            
5.1382872e-005  -2.001417e-007            
5.1582806e-005  -2.0072283e-007            
5.1782739e-005  -2.0115659e-007            
5.1982672e-005  -2.0176346e-007            
5.2182606e-005  -2.0239508e-007            
5.2382539e-005  -2.0291399e-007            
5.2582472e-005  -2.0340927e-007            
5.2782406e-005  -2.0373628e-007            
5.2982339e-005  -2.0440477e-007            
5.3182273e-005  -2.051482e-007            
5.3382206e-005  -2.0594919e-007            
5.3582139e-005  -2.0656033e-007            
5.3782073e-005  -2.0711915e-007            
5.3982006e-005  -2.0768608e-007            
5.4181939e-005  -2.0827499e-007            
5.4381873e-005  -2.0886822e-007            
5.4581806e-005  -2.0962871e-007            
5.4781739e-005  -2.1030006e-007            
5.4981673e-005  -2.1077797e-007            
5.5181606e-005  -2.1138271e-007            
5.5381539e-005  -2.1184569e-007            
5.5581473e-005  -2.1249972e-007            
5.5781406e-005  -2.1309377e-007            
5.598134e-005  -2.1365843e-007            
5.6181273e-005  -2.1417814e-007            
5.6381206e-005  -2.1454978e-007            
5.658114e-005  -2.1507323e-007            
5.6781073e-005  -2.1552958e-007            
5.6981006e-005  -2.1604637e-007            
5.718094e-005  -2.1663155e-007            
5.7380873e-005  -2.1723504e-007            
5.7580806e-005  -2.1785034e-007            
5.778074e-005  -2.1846805e-007            
5.7980673e-005  -2.1886411e-007            
5.8180606e-005  -2.1934565e-007            
5.838054e-005  -2.1987898e-007            
5.8580473e-005  -2.2033381e-007            
5.8780407e-005  -2.2079147e-007            
5.898034e-005  -2.2128826e-007            
5.9180273e-005  -2.2174841e-007            
5.9380207e-005  -2.223995e-007            
5.958014e-005  -2.2286072e-007            
5.9780073e-005  -2.2330031e-007            
5.9980007e-005  -2.2387928e-007            
6.017994e-005  -2.245448e-007            
6.0379873e-005  -2.2504994e-007            
6.0579807e-005  -2.2580358e-007            
6.077974e-005  -2.2629747e-007            
6.0979673e-005  -2.2687355e-007            
6.1179607e-005  -2.2735156e-007            
6.137954e-005  -2.2797373e-007            
6.1579473e-005  -2.2859125e-007            
6.1779407e-005  -2.2909732e-007            
6.197934e-005  -2.2965186e-007            
6.2179274e-005  -2.3004624e-007            
6.2379207e-005  -2.3060882e-007            
6.257914e-005  -2.3136146e-007            
6.2779074e-005  -2.3191654e-007            
6.2979007e-005  -2.3242527e-007            
6.317894e-005  -2.3289025e-007            
6.3378874e-005  -2.3350024e-007            
6.3578807e-005  -2.341901e-007            
6.377874e-005  -2.3475043e-007            
6.3978674e-005  -2.3533233e-007            
6.4178607e-005  -2.3596258e-007            
6.437854e-005  -2.3639149e-007            
6.4578474e-005  -2.3691665e-007            
6.4778407e-005  -2.3734842e-007            
6.4978341e-005  -2.3784443e-007            
6.5178274e-005  -2.3840149e-007            
6.5378207e-005  -2.3885579e-007            
6.5578141e-005  -2.3933371e-007            
6.5778074e-005  -2.3940888e-007            
6.5978007e-005  -2.3957199e-007            
6.6177941e-005  -2.3999321e-007            
6.6377874e-005  -2.4023275e-007            
6.6577807e-005  -2.4051403e-007            
6.6777741e-005  -2.4062209e-007            
6.6977674e-005  -2.4079527e-007            
6.7177607e-005  -2.4105636e-007            
6.7377541e-005  -2.4127856e-007            
6.7577474e-005  -2.4110423e-007            
6.7777407e-005  -2.4128879e-007            
6.7977341e-005  -2.4130771e-007            
6.8177274e-005  -2.412833e-007            
6.8377208e-005  -2.4136807e-007            
6.8577141e-005  -2.4133923e-007            
6.8777074e-005  -2.4116003e-007            
6.8977008e-005  -2.4112672e-007            
6.9176941e-005  -2.4105423e-007            
6.9376874e-005  -2.4092867e-007            
6.9576808e-005  -2.4100168e-007            
6.9776741e-005  -2.4079377e-007            
6.9976674e-005  -2.4058798e-007            
7.0176608e-005  -2.4038193e-007            
7.0376541e-005  -2.4020437e-007            
7.0576474e-005  -2.4006361e-007            
7.0776408e-005  -2.4002655e-007            
7.0976341e-005  -2.3988197e-007            
7.1176275e-005  -2.3965627e-007            
7.1376208e-005  -2.396169e-007            
7.1576141e-005  -2.3953596e-007            
7.1776075e-005  -2.3946797e-007            
7.1976008e-005  -2.3935871e-007            
7.2175941e-005  -2.391548e-007            
7.2375875e-005  -2.3909293e-007            
7.2575808e-005  -2.3904057e-007            
7.2775741e-005  -2.388774e-007            
7.2975675e-005  -2.3872798e-007            
7.3175608e-005  -2.3878483e-007            
7.3375541e-005  -2.38943e-007            
7.3575475e-005  -2.3892177e-007            
7.3775408e-005  -2.3879388e-007            
7.3975342e-005  -2.3865767e-007            
7.4175275e-005  -2.3882325e-007            
7.4375208e-005  -2.3900874e-007            
7.4575142e-005  -2.3918609e-007            
7.4775075e-005  -2.391734e-007            
7.4975008e-005  -2.3931009e-007            
7.5174942e-005  -2.3954141e-007            
7.5374875e-005  -2.3958992e-007            
7.5574808e-005  -2.3964279e-007            
7.5774742e-005  -2.3976795e-007            
7.5974675e-005  -2.4001216e-007            
7.6174608e-005  -2.4020252e-007            
7.6374542e-005  -2.4042319e-007            
7.6574475e-005  -2.4038558e-007            
7.6774408e-005  -2.4063523e-007            
7.6974342e-005  -2.4078639e-007            
7.7174275e-005  -2.410655e-007            
7.7374209e-005  -2.411253e-007            
7.7574142e-005  -2.4116173e-007            
7.7774075e-005  -2.4143698e-007            
7.7974009e-005  -2.4160292e-007            
7.8173942e-005  -2.4172327e-007            
7.8373875e-005  -2.4176639e-007            
7.8573809e-005  -2.4199666e-007            
7.8773742e-005  -2.4235352e-007            
7.8973675e-005  -2.423837e-007            
7.9173609e-005  -2.4232748e-007            
7.9373542e-005  -2.4237393e-007            
7.9573475e-005  -2.4239924e-007            
7.9773409e-005  -2.4248463e-007            
7.9973342e-005  -2.42233e-007            
8.0173276e-005  -2.4184455e-007            
8.0373209e-005  -2.4178433e-007            
8.0573142e-005  -2.4165538e-007            
8.0773076e-005  -2.4138085e-007            
8.0973009e-005  -2.4096693e-007            
8.1172942e-005  -2.4056917e-007            
8.1372876e-005  -2.4022671e-007            
8.1572809e-005  -2.3976072e-007            
8.1772742e-005  -2.3910937e-007            
8.1972676e-005  -2.3846233e-007            
8.2172609e-005  -2.3790697e-007            
8.2372542e-005  -2.373335e-007            
8.2572476e-005  -2.3657256e-007            
8.2772409e-005  -2.357803e-007            
8.2972343e-005  -2.350311e-007            
8.3172276e-005  -2.3428614e-007            
8.3372209e-005  -2.3353153e-007            
8.3572143e-005  -2.3270039e-007            
8.3772076e-005  -2.3155236e-007            
8.3972009e-005  -2.3078818e-007            
8.4171943e-005  -2.2989321e-007            
8.4371876e-005  -2.2899685e-007            
8.4571809e-005  -2.279603e-007            
8.4771743e-005  -2.2673481e-007            
8.4971676e-005  -2.2582816e-007            
8.5171609e-005  -2.2486955e-007            
8.5371543e-005  -2.236065e-007            
8.5571476e-005  -2.2236985e-007            
8.5771409e-005  -2.2120395e-007            
8.5971343e-005  -2.1997688e-007            
8.6171276e-005  -2.1860218e-007            
8.637121e-005  -2.1707733e-007            
8.6571143e-005  -2.1575174e-007            
8.6771076e-005  -2.1468233e-007            
8.697101e-005  -2.1330578e-007            
8.7170943e-005  -2.1170277e-007            
8.7370876e-005  -2.0988368e-007            
8.757081e-005  -2.0831178e-007            
8.7770743e-005  -2.068709e-007            
8.7970676e-005  -2.0521163e-007            
8.817061e-005  -2.0335162e-007            
8.8370543e-005  -2.0160659e-007            
8.8570476e-005  -1.9998567e-007            
8.877041e-005  -1.9823122e-007            
8.8970343e-005  -1.9647197e-007            
8.9170277e-005  -1.9440583e-007            
8.937021e-005  -1.926467e-007            
8.9570143e-005  -1.9073565e-007            
8.9770077e-005  -1.8870968e-007            
8.997001e-005  -1.8663179e-007            
9.0169943e-005  -1.8462636e-007            
9.0369877e-005  -1.8259767e-007            
9.056981e-005  -1.8044596e-007            
9.0769743e-005  -1.7808614e-007            
