Surface Profile             
x       y           
[m]     [m]         
0  -3.3176388e-010            
1.9993336e-007  -8.6175291e-010            
3.9986671e-007  -1.455168e-009            
5.9980007e-007  -1.7779904e-009            
7.9973342e-007  -2.1634143e-009            
9.9966678e-007  -2.6261153e-009            
1.1996001e-006  -2.7539339e-009            
1.3995335e-006  -3.1126403e-009            
1.5994668e-006  -3.5360283e-009            
1.7994002e-006  -3.9674999e-009            
1.9993336e-006  -4.5471095e-009            
2.1992669e-006  -4.9406765e-009            
2.3992003e-006  -5.2912732e-009            
2.5991336e-006  -5.7451487e-009            
2.799067e-006  -6.246887e-009            
2.9990003e-006  -6.8473259e-009            
3.1989337e-006  -7.4111118e-009            
3.398867e-006  -7.8387406e-009            
3.5988004e-006  -8.3307254e-009            
3.7987338e-006  -8.7712487e-009            
3.9986671e-006  -9.3145193e-009            
4.1986005e-006  -1.0034792e-008            
4.3985338e-006  -1.0600897e-008            
4.5984672e-006  -1.0997206e-008            
4.7984005e-006  -1.1414174e-008            
4.9983339e-006  -1.1962928e-008            
5.1982672e-006  -1.2529246e-008            
5.3982006e-006  -1.3041796e-008            
5.598134e-006  -1.3633116e-008            
5.7980673e-006  -1.4022337e-008            
5.9980007e-006  -1.4575076e-008            
6.197934e-006  -1.5208989e-008            
6.3978674e-006  -1.5888134e-008            
6.5978007e-006  -1.6436229e-008            
6.7977341e-006  -1.6999779e-008            
6.9976674e-006  -1.7378481e-008            
7.1976008e-006  -1.7759681e-008            
7.3975342e-006  -1.8190334e-008            
7.5974675e-006  -1.8614064e-008            
7.7974009e-006  -1.9214422e-008            
7.9973342e-006  -1.9635295e-008            
8.1972676e-006  -1.9949211e-008            
8.3972009e-006  -2.0161656e-008            
8.5971343e-006  -2.0550332e-008            
8.7970676e-006  -2.1192997e-008            
8.997001e-006  -2.1764949e-008            
9.1969344e-006  -2.2127237e-008            
9.3968677e-006  -2.2512998e-008            
9.5968011e-006  -2.2812472e-008            
9.7967344e-006  -2.338144e-008            
9.9966678e-006  -2.3743341e-008            
1.0196601e-005  -2.4125814e-008            
1.0396534e-005  -2.453558e-008            
1.0596468e-005  -2.4774819e-008            
1.0796401e-005  -2.5053242e-008            
1.0996335e-005  -2.5307961e-008            
1.1196268e-005  -2.5473989e-008            
1.1396201e-005  -2.5945885e-008            
1.1596135e-005  -2.6368542e-008            
1.1796068e-005  -2.6570027e-008            
1.1996001e-005  -2.6728718e-008            
1.2195935e-005  -2.7179153e-008            
1.2395868e-005  -2.7644538e-008            
1.2595801e-005  -2.7970057e-008            
1.2795735e-005  -2.8153776e-008            
1.2995668e-005  -2.8448996e-008            
1.3195601e-005  -2.8782461e-008            
1.3395535e-005  -2.9022438e-008            
1.3595468e-005  -2.9401497e-008            
1.3795402e-005  -2.9638568e-008            
1.3995335e-005  -2.9902161e-008            
1.4195268e-005  -3.030931e-008            
1.4395202e-005  -3.0537325e-008            
1.4595135e-005  -3.0835678e-008            
1.4795068e-005  -3.1038128e-008            
1.4995002e-005  -3.150305e-008            
1.5194935e-005  -3.1891102e-008            
1.5394868e-005  -3.2120921e-008            
1.5594802e-005  -3.2474056e-008            
1.5794735e-005  -3.272301e-008            
1.5994668e-005  -3.3130578e-008            
1.6194602e-005  -3.3506255e-008            
1.6394535e-005  -3.3830908e-008            
1.6594469e-005  -3.4086801e-008            
1.6794402e-005  -3.4463075e-008            
1.6994335e-005  -3.4715503e-008            
1.7194269e-005  -3.5000933e-008            
1.7394202e-005  -3.5068735e-008            
1.7594135e-005  -3.5370784e-008            
1.7794069e-005  -3.5772263e-008            
1.7994002e-005  -3.6051378e-008            
1.8193935e-005  -3.6286252e-008            
1.8393869e-005  -3.6532734e-008            
1.8593802e-005  -3.6939931e-008            
1.8793735e-005  -3.7470716e-008            
1.8993669e-005  -3.7791455e-008            
1.9193602e-005  -3.8020748e-008            
1.9393535e-005  -3.8323823e-008            
1.9593469e-005  -3.8689203e-008            
1.9793402e-005  -3.9130948e-008            
1.9993336e-005  -3.9496278e-008            
2.0193269e-005  -3.9812242e-008            
2.0393202e-005  -4.0265826e-008            
2.0593136e-005  -4.0611063e-008            
2.0793069e-005  -4.1002581e-008            
2.0993002e-005  -4.1410114e-008            
2.1192936e-005  -4.2004654e-008            
2.1392869e-005  -4.2599816e-008            
2.1592802e-005  -4.3079724e-008            
2.1792736e-005  -4.3575194e-008            
2.1992669e-005  -4.414449e-008            
2.2192602e-005  -4.4896028e-008            
2.2392536e-005  -4.559752e-008            
2.2592469e-005  -4.6159425e-008            
2.2792403e-005  -4.6854678e-008            
2.2992336e-005  -4.7477328e-008            
2.3192269e-005  -4.8219478e-008            
2.3392203e-005  -4.8970291e-008            
2.3592136e-005  -4.9822795e-008            
2.3792069e-005  -5.0522383e-008            
2.3992003e-005  -5.1206951e-008            
2.4191936e-005  -5.167122e-008            
2.4391869e-005  -5.2325498e-008            
2.4591803e-005  -5.3076798e-008            
2.4791736e-005  -5.3770102e-008            
2.4991669e-005  -5.4592981e-008            
2.5191603e-005  -5.515887e-008            
2.5391536e-005  -5.5961181e-008            
2.5591469e-005  -5.6867734e-008            
2.5791403e-005  -5.7728173e-008            
2.5991336e-005  -5.883129e-008            
2.619127e-005  -5.9846027e-008            
2.6391203e-005  -6.0528389e-008            
2.6591136e-005  -6.1386837e-008            
2.679107e-005  -6.2290641e-008            
2.6991003e-005  -6.3270831e-008            
2.7190936e-005  -6.429538e-008            
2.739087e-005  -6.4911987e-008            
2.7590803e-005  -6.5840378e-008            
2.7790736e-005  -6.6839831e-008            
2.799067e-005  -6.7811936e-008            
2.8190603e-005  -6.8705386e-008            
2.8390536e-005  -6.9777388e-008            
2.859047e-005  -7.0771391e-008            
2.8790403e-005  -7.1827925e-008            
2.8990337e-005  -7.2809316e-008            
2.919027e-005  -7.3942691e-008            
2.9390203e-005  -7.5125946e-008            
2.9590137e-005  -7.620859e-008            
2.979007e-005  -7.7365573e-008            
2.9990003e-005  -7.8504813e-008            
3.0189937e-005  -7.9875781e-008            
3.038987e-005  -8.1229484e-008            
3.0589803e-005  -8.2577888e-008            
3.0789737e-005  -8.3875988e-008            
3.098967e-005  -8.5051926e-008            
3.1189603e-005  -8.6344787e-008            
3.1389537e-005  -8.7858202e-008            
3.158947e-005  -8.9512595e-008            
3.1789404e-005  -9.0836283e-008            
3.1989337e-005  -9.2094106e-008            
3.218927e-005  -9.345183e-008            
3.2389204e-005  -9.4966242e-008            
3.2589137e-005  -9.6328602e-008            
3.278907e-005  -9.7748006e-008            
3.2989004e-005  -9.9106098e-008            
3.3188937e-005  -1.0027995e-007            
3.338887e-005  -1.0169018e-007            
3.3588804e-005  -1.0284122e-007            
3.3788737e-005  -1.0400576e-007            
3.398867e-005  -1.0528933e-007            
3.4188604e-005  -1.063976e-007            
3.4388537e-005  -1.0759823e-007            
3.458847e-005  -1.0861952e-007            
3.4788404e-005  -1.0969229e-007            
3.4988337e-005  -1.1090488e-007            
3.5188271e-005  -1.1193317e-007            
3.5388204e-005  -1.1301425e-007            
3.5588137e-005  -1.1407172e-007            
3.5788071e-005  -1.1507685e-007            
3.5988004e-005  -1.1607373e-007            
3.6187937e-005  -1.1720042e-007            
3.6387871e-005  -1.1838972e-007            
3.6587804e-005  -1.1936059e-007            
3.6787737e-005  -1.2037766e-007            
3.6987671e-005  -1.2142356e-007            
3.7187604e-005  -1.2250691e-007            
3.7387537e-005  -1.2356213e-007            
3.7587471e-005  -1.2446008e-007            
3.7787404e-005  -1.2542039e-007            
3.7987338e-005  -1.2638759e-007            
3.8187271e-005  -1.2736245e-007            
3.8387204e-005  -1.2832458e-007            
3.8587138e-005  -1.2924311e-007            
3.8787071e-005  -1.3021115e-007            
3.8987004e-005  -1.3105045e-007            
3.9186938e-005  -1.3205905e-007            
3.9386871e-005  -1.3303357e-007            
3.9586804e-005  -1.3393167e-007            
3.9786738e-005  -1.3506873e-007            
3.9986671e-005  -1.3592818e-007            
4.0186604e-005  -1.3708801e-007            
4.0386538e-005  -1.379528e-007            
4.0586471e-005  -1.3885641e-007            
4.0786405e-005  -1.3985808e-007            
4.0986338e-005  -1.4078027e-007            
4.1186271e-005  -1.4186707e-007            
4.1386205e-005  -1.4276684e-007            
4.1586138e-005  -1.4383098e-007            
4.1786071e-005  -1.448224e-007            
4.1986005e-005  -1.4572736e-007            
4.2185938e-005  -1.4669897e-007            
4.2385871e-005  -1.4798507e-007            
4.2585805e-005  -1.488686e-007            
4.2785738e-005  -1.4990549e-007            
4.2985671e-005  -1.5075151e-007            
4.3185605e-005  -1.5164368e-007            
4.3385538e-005  -1.5271974e-007            
4.3585471e-005  -1.5355421e-007            
4.3785405e-005  -1.5433257e-007            
4.3985338e-005  -1.5525757e-007            
4.4185272e-005  -1.5624003e-007            
4.4385205e-005  -1.5721161e-007            
4.4585138e-005  -1.5802957e-007            
4.4785072e-005  -1.5889879e-007            
4.4985005e-005  -1.5994153e-007            
4.5184938e-005  -1.6113176e-007            
4.5384872e-005  -1.6199294e-007            
4.5584805e-005  -1.6291616e-007            
4.5784738e-005  -1.63785e-007            
4.5984672e-005  -1.648653e-007            
4.6184605e-005  -1.6592617e-007            
4.6384538e-005  -1.6686579e-007            
4.6584472e-005  -1.6766722e-007            
4.6784405e-005  -1.6851658e-007            
4.6984339e-005  -1.6961832e-007            
4.7184272e-005  -1.7060031e-007            
4.7384205e-005  -1.7149941e-007            
4.7584139e-005  -1.723892e-007            
4.7784072e-005  -1.7334664e-007            
4.7984005e-005  -1.7426443e-007            
4.8183939e-005  -1.751431e-007            
4.8383872e-005  -1.7573289e-007            
4.8583805e-005  -1.7644071e-007            
4.8783739e-005  -1.7744788e-007            
4.8983672e-005  -1.7822363e-007            
4.9183605e-005  -1.7900237e-007            
4.9383539e-005  -1.7966754e-007            
4.9583472e-005  -1.8050901e-007            
4.9783406e-005  -1.8152609e-007            
4.9983339e-005  -1.8223544e-007            
5.0183272e-005  -1.8306897e-007            
5.0383206e-005  -1.8385745e-007            
5.0583139e-005  -1.8465791e-007            
5.0783072e-005  -1.8539877e-007            
5.0983006e-005  -1.8614134e-007            
5.1182939e-005  -1.8691101e-007            
5.1382872e-005  -1.8778452e-007            
5.1582806e-005  -1.8850093e-007            
5.1782739e-005  -1.8925136e-007            
5.1982672e-005  -1.9011434e-007            
5.2182606e-005  -1.909808e-007            
5.2382539e-005  -1.9191591e-007            
5.2582472e-005  -1.925863e-007            
5.2782406e-005  -1.9334669e-007            
5.2982339e-005  -1.9425244e-007            
5.3182273e-005  -1.950259e-007            
5.3382206e-005  -1.9575759e-007            
5.3582139e-005  -1.9640595e-007            
5.3782073e-005  -1.9707617e-007            
5.3982006e-005  -1.9784859e-007            
5.4181939e-005  -1.9860782e-007            
5.4381873e-005  -1.9939439e-007            
5.4581806e-005  -2.0007667e-007            
5.4781739e-005  -2.0083728e-007            
5.4981673e-005  -2.0163046e-007            
5.5181606e-005  -2.0231147e-007            
5.5381539e-005  -2.0304658e-007            
5.5581473e-005  -2.0399596e-007            
5.5781406e-005  -2.0472298e-007            
5.598134e-005  -2.0539954e-007            
5.6181273e-005  -2.0577694e-007            
5.6381206e-005  -2.0634531e-007            
5.658114e-005  -2.0702235e-007            
5.6781073e-005  -2.0787323e-007            
5.6981006e-005  -2.0847534e-007            
5.718094e-005  -2.0890433e-007            
5.7380873e-005  -2.0936417e-007            
5.7580806e-005  -2.0998545e-007            
5.778074e-005  -2.1068774e-007            
5.7980673e-005  -2.1134572e-007            
5.8180606e-005  -2.117776e-007            
5.838054e-005  -2.1197041e-007            
5.8580473e-005  -2.1233632e-007            
5.8780407e-005  -2.1271228e-007            
5.898034e-005  -2.1327906e-007            
5.9180273e-005  -2.1381872e-007            
5.9380207e-005  -2.1405121e-007            
5.958014e-005  -2.1441416e-007            
5.9780073e-005  -2.1485626e-007            
5.9980007e-005  -2.1530511e-007            
6.017994e-005  -2.16006e-007            
6.0379873e-005  -2.1661039e-007            
6.0579807e-005  -2.1692687e-007            
6.077974e-005  -2.1746593e-007            
6.0979673e-005  -2.1780084e-007            
6.1179607e-005  -2.182241e-007            
6.137954e-005  -2.1892807e-007            
6.1579473e-005  -2.1938348e-007            
6.1779407e-005  -2.1986693e-007            
6.197934e-005  -2.2034528e-007            
6.2179274e-005  -2.20671e-007            
6.2379207e-005  -2.2100187e-007            
6.257914e-005  -2.2154449e-007            
6.2779074e-005  -2.2204413e-007            
6.2979007e-005  -2.2234343e-007            
6.317894e-005  -2.2244165e-007            
6.3378874e-005  -2.2276874e-007            
6.3578807e-005  -2.2309244e-007            
6.377874e-005  -2.2347806e-007            
6.3978674e-005  -2.2370457e-007            
6.4178607e-005  -2.2384354e-007            
6.437854e-005  -2.2396887e-007            
6.4578474e-005  -2.2405932e-007            
6.4778407e-005  -2.2424628e-007            
6.4978341e-005  -2.2458908e-007            
6.5178274e-005  -2.2480103e-007            
6.5378207e-005  -2.2500122e-007            
6.5578141e-005  -2.2511342e-007            
6.5778074e-005  -2.2522577e-007            
6.5978007e-005  -2.2535127e-007            
6.6177941e-005  -2.2547241e-007            
6.6377874e-005  -2.2558077e-007            
6.6577807e-005  -2.2572867e-007            
6.6777741e-005  -2.2594779e-007            
6.6977674e-005  -2.2594e-007            
6.7177607e-005  -2.2603321e-007            
6.7377541e-005  -2.261301e-007            
6.7577474e-005  -2.2637902e-007            
6.7777407e-005  -2.263873e-007            
6.7977341e-005  -2.2628391e-007            
6.8177274e-005  -2.2639979e-007            
6.8377208e-005  -2.2628005e-007            
6.8577141e-005  -2.2628173e-007            
6.8777074e-005  -2.2641003e-007            
6.8977008e-005  -2.2648672e-007            
6.9176941e-005  -2.2670037e-007            
6.9376874e-005  -2.2662009e-007            
6.9576808e-005  -2.2664078e-007            
6.9776741e-005  -2.2687987e-007            
6.9976674e-005  -2.2683512e-007            
7.0176608e-005  -2.2685641e-007            
7.0376541e-005  -2.2689552e-007            
7.0576474e-005  -2.2674754e-007            
7.0776408e-005  -2.2680776e-007            
7.0976341e-005  -2.2667766e-007            
7.1176275e-005  -2.2676865e-007            
7.1376208e-005  -2.2673935e-007            
7.1576141e-005  -2.2667246e-007            
7.1776075e-005  -2.2660013e-007            
7.1976008e-005  -2.2642787e-007            
7.2175941e-005  -2.2640081e-007            
7.2375875e-005  -2.2633401e-007            
7.2575808e-005  -2.2649135e-007            
7.2775741e-005  -2.2666952e-007            
7.2975675e-005  -2.2670038e-007            
7.3175608e-005  -2.2679111e-007            
7.3375541e-005  -2.2696422e-007            
7.3575475e-005  -2.2716637e-007            
7.3775408e-005  -2.2747264e-007            
7.3975342e-005  -2.2747073e-007            
7.4175275e-005  -2.2738805e-007            
7.4375208e-005  -2.2753516e-007            
7.4575142e-005  -2.2783753e-007            
7.4775075e-005  -2.2825142e-007            
7.4975008e-005  -2.2853649e-007            
7.5174942e-005  -2.2854778e-007            
7.5374875e-005  -2.2854953e-007            
7.5574808e-005  -2.2872458e-007            
7.5774742e-005  -2.2877846e-007            
7.5974675e-005  -2.2892583e-007            
7.6174608e-005  -2.2918654e-007            
7.6374542e-005  -2.2934135e-007            
7.6574475e-005  -2.2949214e-007            
7.6774408e-005  -2.2940328e-007            
7.6974342e-005  -2.2978634e-007            
7.7174275e-005  -2.3028495e-007            
7.7374209e-005  -2.3066149e-007            
7.7574142e-005  -2.3087526e-007            
7.7774075e-005  -2.3087535e-007            
7.7974009e-005  -2.3120273e-007            
7.8173942e-005  -2.3160468e-007            
7.8373875e-005  -2.3185489e-007            
7.8573809e-005  -2.321395e-007            
7.8773742e-005  -2.3222799e-007            
7.8973675e-005  -2.3230753e-007            
7.9173609e-005  -2.3242683e-007            
7.9373542e-005  -2.3254315e-007            
7.9573475e-005  -2.3273195e-007            
7.9773409e-005  -2.3295519e-007            
7.9973342e-005  -2.3318963e-007            
8.0173276e-005  -2.3319654e-007            
8.0373209e-005  -2.3314536e-007            
8.0573142e-005  -2.333424e-007            
8.0773076e-005  -2.3370804e-007            
8.0973009e-005  -2.3384913e-007            
8.1172942e-005  -2.3394328e-007            
8.1372876e-005  -2.3384832e-007            
8.1572809e-005  -2.3406689e-007            
8.1772742e-005  -2.3427602e-007            
8.1972676e-005  -2.3444555e-007            
8.2172609e-005  -2.3456614e-007            
8.2372542e-005  -2.3464262e-007            
8.2572476e-005  -2.3462388e-007            
8.2772409e-005  -2.346464e-007            
8.2972343e-005  -2.3469965e-007            
8.3172276e-005  -2.3489085e-007            
8.3372209e-005  -2.3526254e-007            
8.3572143e-005  -2.3517624e-007            
8.3772076e-005  -2.3509503e-007            
8.3972009e-005  -2.3507486e-007            
8.4171943e-005  -2.3537214e-007            
8.4371876e-005  -2.357359e-007            
8.4571809e-005  -2.3577089e-007            
8.4771743e-005  -2.3572235e-007            
8.4971676e-005  -2.3560604e-007            
8.5171609e-005  -2.3574034e-007            
8.5371543e-005  -2.3598953e-007            
8.5571476e-005  -2.3609998e-007            
8.5771409e-005  -2.3609848e-007            
8.5971343e-005  -2.3623778e-007            
8.6171276e-005  -2.3650419e-007            
8.637121e-005  -2.3667133e-007            
8.6571143e-005  -2.369635e-007            
8.6771076e-005  -2.372958e-007            
8.697101e-005  -2.3770762e-007            
8.7170943e-005  -2.3797137e-007            
8.7370876e-005  -2.3827283e-007            
8.757081e-005  -2.385831e-007            
8.7770743e-005  -2.3907315e-007            
8.7970676e-005  -2.3951486e-007            
8.817061e-005  -2.3985258e-007            
8.8370543e-005  -2.3999565e-007            
8.8570476e-005  -2.4024894e-007            
8.877041e-005  -2.405512e-007            
8.8970343e-005  -2.4097179e-007            
8.9170277e-005  -2.4135781e-007            
8.937021e-005  -2.4154541e-007            
8.9570143e-005  -2.4168842e-007            
8.9770077e-005  -2.417811e-007            
8.997001e-005  -2.4165797e-007            
9.0169943e-005  -2.4176733e-007            
9.0369877e-005  -2.4180436e-007            
9.056981e-005  -2.4188339e-007            
9.0769743e-005  -2.4184556e-007            
