Surface Profile             
x       y           
[m]     [m]         
0  -6.2149651e-009            
1.9993336e-007  -8.1026899e-009            
3.9986671e-007  -9.5809171e-009            
5.9980007e-007  -1.0780846e-008            
7.9973342e-007  -1.1580311e-008            
9.9966678e-007  -1.2664178e-008            
1.1996001e-006  -1.3638322e-008            
1.3995335e-006  -1.4871077e-008            
1.5994668e-006  -1.5798482e-008            
1.7994002e-006  -1.6956101e-008            
1.9993336e-006  -1.8166337e-008            
2.1992669e-006  -1.9613979e-008            
2.3992003e-006  -2.0707146e-008            
2.5991336e-006  -2.1898375e-008            
2.799067e-006  -2.3160013e-008            
2.9990003e-006  -2.4409859e-008            
3.1989337e-006  -2.56158e-008            
3.398867e-006  -2.6809365e-008            
3.5988004e-006  -2.8208835e-008            
3.7987338e-006  -2.9523114e-008            
3.9986671e-006  -3.0875338e-008            
4.1986005e-006  -3.2017827e-008            
4.3985338e-006  -3.3352777e-008            
4.5984672e-006  -3.4724622e-008            
4.7984005e-006  -3.6045346e-008            
4.9983339e-006  -3.7265074e-008            
5.1982672e-006  -3.8459804e-008            
5.3982006e-006  -3.9742624e-008            
5.598134e-006  -4.1115839e-008            
5.7980673e-006  -4.2260637e-008            
5.9980007e-006  -4.3342906e-008            
6.197934e-006  -4.459465e-008            
6.3978674e-006  -4.58213e-008            
6.5978007e-006  -4.7169858e-008            
6.7977341e-006  -4.8337189e-008            
6.9976674e-006  -4.9478859e-008            
7.1976008e-006  -5.0669972e-008            
7.3975342e-006  -5.1671512e-008            
7.5974675e-006  -5.2751646e-008            
7.7974009e-006  -5.3590394e-008            
7.9973342e-006  -5.4727891e-008            
8.1972676e-006  -5.5871916e-008            
8.3972009e-006  -5.688112e-008            
8.5971343e-006  -5.7591936e-008            
8.7970676e-006  -5.8733948e-008            
8.997001e-006  -5.968696e-008            
9.1969344e-006  -6.0645222e-008            
9.3968677e-006  -6.1560313e-008            
9.5968011e-006  -6.2098764e-008            
9.7967344e-006  -6.2939059e-008            
9.9966678e-006  -6.3783537e-008            
1.0196601e-005  -6.4596244e-008            
1.0396534e-005  -6.5328098e-008            
1.0596468e-005  -6.5919934e-008            
1.0796401e-005  -6.6733776e-008            
1.0996335e-005  -6.7282718e-008            
1.1196268e-005  -6.7837997e-008            
1.1396201e-005  -6.8350368e-008            
1.1596135e-005  -6.8981626e-008            
1.1796068e-005  -6.956824e-008            
1.1996001e-005  -6.9968918e-008            
1.2195935e-005  -7.0239666e-008            
1.2395868e-005  -7.0682739e-008            
1.2595801e-005  -7.1137666e-008            
1.2795735e-005  -7.165375e-008            
1.2995668e-005  -7.2104415e-008            
1.3195601e-005  -7.2287232e-008            
1.3395535e-005  -7.2564321e-008            
1.3595468e-005  -7.2997687e-008            
1.3795402e-005  -7.3426557e-008            
1.3995335e-005  -7.3699805e-008            
1.4195268e-005  -7.3994624e-008            
1.4395202e-005  -7.416456e-008            
1.4595135e-005  -7.4358281e-008            
1.4795068e-005  -7.464963e-008            
1.4995002e-005  -7.5198538e-008            
1.5194935e-005  -7.5563526e-008            
1.5394868e-005  -7.5835112e-008            
1.5594802e-005  -7.6096271e-008            
1.5794735e-005  -7.6110588e-008            
1.5994668e-005  -7.6334639e-008            
1.6194602e-005  -7.6871889e-008            
1.6394535e-005  -7.7096454e-008            
1.6594469e-005  -7.7066026e-008            
1.6794402e-005  -7.7125616e-008            
1.6994335e-005  -7.7136385e-008            
1.7194269e-005  -7.7673111e-008            
1.7394202e-005  -7.7751096e-008            
1.7594135e-005  -7.7706119e-008            
1.7794069e-005  -7.7732816e-008            
1.7994002e-005  -7.7748723e-008            
1.8193935e-005  -7.7828689e-008            
1.8393869e-005  -7.78531e-008            
1.8593802e-005  -7.7798429e-008            
1.8793735e-005  -7.8000152e-008            
1.8993669e-005  -7.8003539e-008            
1.9193602e-005  -7.7919214e-008            
1.9393535e-005  -7.7669503e-008            
1.9593469e-005  -7.7753839e-008            
1.9793402e-005  -7.7968042e-008            
1.9993336e-005  -7.798371e-008            
2.0193269e-005  -7.7965817e-008            
2.0393202e-005  -7.7851095e-008            
2.0593136e-005  -7.7967251e-008            
2.0793069e-005  -7.8270808e-008            
2.0993002e-005  -7.8447533e-008            
2.1192936e-005  -7.8518279e-008            
2.1392869e-005  -7.873808e-008            
2.1592802e-005  -7.9033663e-008            
2.1792736e-005  -7.9241823e-008            
2.1992669e-005  -7.9472199e-008            
2.2192602e-005  -7.9710716e-008            
2.2392536e-005  -8.0147999e-008            
2.2592469e-005  -8.0395172e-008            
2.2792403e-005  -8.0734617e-008            
2.2992336e-005  -8.1166359e-008            
2.3192269e-005  -8.1704462e-008            
2.3392203e-005  -8.2276429e-008            
2.3592136e-005  -8.2704254e-008            
2.3792069e-005  -8.3087779e-008            
2.3992003e-005  -8.3499336e-008            
2.4191936e-005  -8.4167611e-008            
2.4391869e-005  -8.487961e-008            
2.4591803e-005  -8.5761078e-008            
2.4791736e-005  -8.6325423e-008            
2.4991669e-005  -8.6894732e-008            
2.5191603e-005  -8.741903e-008            
2.5391536e-005  -8.8175661e-008            
2.5591469e-005  -8.9240361e-008            
2.5791403e-005  -8.9969917e-008            
2.5991336e-005  -9.0701621e-008            
2.619127e-005  -9.1502118e-008            
2.6391203e-005  -9.2367796e-008            
2.6591136e-005  -9.3229912e-008            
2.679107e-005  -9.4056682e-008            
2.6991003e-005  -9.5112672e-008            
2.7190936e-005  -9.5983223e-008            
2.739087e-005  -9.6852619e-008            
2.7590803e-005  -9.7747092e-008            
2.7790736e-005  -9.8602564e-008            
2.799067e-005  -9.9628126e-008            
2.8190603e-005  -1.0085061e-007            
2.8390536e-005  -1.0174545e-007            
2.859047e-005  -1.027359e-007            
2.8790403e-005  -1.038124e-007            
2.8990337e-005  -1.0473865e-007            
2.919027e-005  -1.0576515e-007            
2.9390203e-005  -1.0687827e-007            
2.9590137e-005  -1.0818886e-007            
2.979007e-005  -1.0950459e-007            
2.9990003e-005  -1.1073158e-007            
3.0189937e-005  -1.1179679e-007            
3.038987e-005  -1.1295963e-007            
3.0589803e-005  -1.1430583e-007            
3.0789737e-005  -1.1557738e-007            
3.098967e-005  -1.1684176e-007            
3.1189603e-005  -1.1781823e-007            
3.1389537e-005  -1.1889247e-007            
3.158947e-005  -1.200729e-007            
3.1789404e-005  -1.2139073e-007            
3.1989337e-005  -1.2274673e-007            
3.218927e-005  -1.2390109e-007            
3.2389204e-005  -1.2510374e-007            
3.2589137e-005  -1.2621342e-007            
3.278907e-005  -1.2761716e-007            
3.2989004e-005  -1.2892352e-007            
3.3188937e-005  -1.3030245e-007            
3.338887e-005  -1.3179849e-007            
3.3588804e-005  -1.332182e-007            
3.3788737e-005  -1.344953e-007            
3.398867e-005  -1.3594789e-007            
3.4188604e-005  -1.3733369e-007            
3.4388537e-005  -1.391125e-007            
3.458847e-005  -1.4070077e-007            
3.4788404e-005  -1.4207445e-007            
3.4988337e-005  -1.4348236e-007            
3.5188271e-005  -1.4498565e-007            
3.5388204e-005  -1.4694689e-007            
3.5588137e-005  -1.48843e-007            
3.5788071e-005  -1.5049821e-007            
3.5988004e-005  -1.5209196e-007            
3.6187937e-005  -1.5375277e-007            
3.6387871e-005  -1.5544253e-007            
3.6587804e-005  -1.5736394e-007            
3.6787737e-005  -1.5926955e-007            
3.6987671e-005  -1.6117302e-007            
3.7187604e-005  -1.6294927e-007            
3.7387537e-005  -1.6465972e-007            
3.7587471e-005  -1.6667082e-007            
3.7787404e-005  -1.6871069e-007            
3.7987338e-005  -1.7072231e-007            
3.8187271e-005  -1.7281283e-007            
3.8387204e-005  -1.7464771e-007            
3.8587138e-005  -1.7648344e-007            
3.8787071e-005  -1.786165e-007            
3.8987004e-005  -1.8094563e-007            
3.9186938e-005  -1.8319719e-007            
3.9386871e-005  -1.8547469e-007            
3.9586804e-005  -1.8752409e-007            
3.9786738e-005  -1.8969375e-007            
3.9986671e-005  -1.9210157e-007            
4.0186604e-005  -1.9468025e-007            
4.0386538e-005  -1.9715023e-007            
4.0586471e-005  -1.9947638e-007            
4.0786405e-005  -2.0182843e-007            
4.0986338e-005  -2.0382978e-007            
4.1186271e-005  -2.0609341e-007            
4.1386205e-005  -2.0863284e-007            
4.1586138e-005  -2.1114584e-007            
4.1786071e-005  -2.1355616e-007            
4.1986005e-005  -2.1566944e-007            
4.2185938e-005  -2.1790215e-007            
4.2385871e-005  -2.20314e-007            
4.2585805e-005  -2.2280335e-007            
4.2785738e-005  -2.2534969e-007            
4.2985671e-005  -2.2761581e-007            
4.3185605e-005  -2.2986806e-007            
4.3385538e-005  -2.322835e-007            
4.3585471e-005  -2.3501039e-007            
4.3785405e-005  -2.3772729e-007            
4.3985338e-005  -2.4046069e-007            
4.4185272e-005  -2.4311957e-007            
4.4385205e-005  -2.4582052e-007            
4.4585138e-005  -2.4862756e-007            
4.4785072e-005  -2.5155223e-007            
4.4985005e-005  -2.5458818e-007            
4.5184938e-005  -2.57608e-007            
4.5384872e-005  -2.6072131e-007            
4.5584805e-005  -2.6377525e-007            
4.5784738e-005  -2.6652217e-007            
4.5984672e-005  -2.6954708e-007            
4.6184605e-005  -2.7265116e-007            
4.6384538e-005  -2.7567797e-007            
4.6584472e-005  -2.7870001e-007            
4.6784405e-005  -2.8170215e-007            
4.6984339e-005  -2.8452458e-007            
4.7184272e-005  -2.8767787e-007            
4.7384205e-005  -2.9075337e-007            
4.7584139e-005  -2.9364561e-007            
4.7784072e-005  -2.9620603e-007            
4.7984005e-005  -2.9898401e-007            
4.8183939e-005  -3.0183818e-007            
4.8383872e-005  -3.0461166e-007            
4.8583805e-005  -3.0737577e-007            
4.8783739e-005  -3.1017491e-007            
4.8983672e-005  -3.1304164e-007            
4.9183605e-005  -3.1580039e-007            
4.9383539e-005  -3.1850413e-007            
4.9583472e-005  -3.2116043e-007            
4.9783406e-005  -3.2404281e-007            
4.9983339e-005  -3.267524e-007            
5.0183272e-005  -3.2943403e-007            
5.0383206e-005  -3.3197796e-007            
5.0583139e-005  -3.3440672e-007            
5.0783072e-005  -3.3717598e-007            
5.0983006e-005  -3.3963293e-007            
5.1182939e-005  -3.4210709e-007            
5.1382872e-005  -3.4448754e-007            
5.1582806e-005  -3.467009e-007            
5.1782739e-005  -3.4888207e-007            
5.1982672e-005  -3.5103166e-007            
5.2182606e-005  -3.5326098e-007            
5.2382539e-005  -3.5536438e-007            
5.2582472e-005  -3.5732294e-007            
5.2782406e-005  -3.5928855e-007            
5.2982339e-005  -3.6126873e-007            
5.3182273e-005  -3.631057e-007            
5.3382206e-005  -3.6508668e-007            
5.3582139e-005  -3.6704644e-007            
5.3782073e-005  -3.6904139e-007            
5.3982006e-005  -3.7088259e-007            
5.4181939e-005  -3.7255019e-007            
5.4381873e-005  -3.7446971e-007            
5.4581806e-005  -3.7623756e-007            
5.4781739e-005  -3.7813194e-007            
5.4981673e-005  -3.7984736e-007            
5.5181606e-005  -3.8133447e-007            
5.5381539e-005  -3.8290287e-007            
5.5581473e-005  -3.843159e-007            
5.5781406e-005  -3.857974e-007            
5.598134e-005  -3.8748529e-007            
5.6181273e-005  -3.8898864e-007            
5.6381206e-005  -3.9027765e-007            
5.658114e-005  -3.9152735e-007            
5.6781073e-005  -3.9279229e-007            
5.6981006e-005  -3.9417694e-007            
5.718094e-005  -3.9547545e-007            
5.7380873e-005  -3.9661486e-007            
5.7580806e-005  -3.9781256e-007            
5.778074e-005  -3.9872473e-007            
5.7980673e-005  -3.9984689e-007            
5.8180606e-005  -4.0099549e-007            
5.838054e-005  -4.0214048e-007            
5.8580473e-005  -4.0308283e-007            
5.8780407e-005  -4.0396789e-007            
5.898034e-005  -4.0478969e-007            
5.9180273e-005  -4.0550361e-007            
5.9380207e-005  -4.0630181e-007            
5.958014e-005  -4.0708648e-007            
5.9780073e-005  -4.0776391e-007            
5.9980007e-005  -4.0838459e-007            
6.017994e-005  -4.0892428e-007            
6.0379873e-005  -4.0945103e-007            
6.0579807e-005  -4.1017425e-007            
6.077974e-005  -4.1107137e-007            
6.0979673e-005  -4.1169296e-007            
6.1179607e-005  -4.1213737e-007            
6.137954e-005  -4.1220743e-007            
6.1579473e-005  -4.1253438e-007            
6.1779407e-005  -4.1298796e-007            
6.197934e-005  -4.1336719e-007            
6.2179274e-005  -4.1365525e-007            
6.2379207e-005  -4.1391151e-007            
6.257914e-005  -4.1390524e-007            
6.2779074e-005  -4.1419984e-007            
6.2979007e-005  -4.14596e-007            
6.317894e-005  -4.1482838e-007            
6.3378874e-005  -4.1521395e-007            
6.3578807e-005  -4.1503203e-007            
6.377874e-005  -4.1505255e-007            
6.3978674e-005  -4.1509524e-007            
6.4178607e-005  -4.1523951e-007            
6.437854e-005  -4.1547931e-007            
6.4578474e-005  -4.1548448e-007            
6.4778407e-005  -4.1552991e-007            
6.4978341e-005  -4.1549788e-007            
6.5178274e-005  -4.1547978e-007            
6.5378207e-005  -4.1552779e-007            
6.5578141e-005  -4.1575047e-007            
6.5778074e-005  -4.158327e-007            
6.5978007e-005  -4.1560302e-007            
6.6177941e-005  -4.1524961e-007            
6.6377874e-005  -4.1513448e-007            
6.6577807e-005  -4.1516443e-007            
6.6777741e-005  -4.1527458e-007            
6.6977674e-005  -4.1518184e-007            
6.7177607e-005  -4.1498394e-007            
6.7377541e-005  -4.1466089e-007            
6.7577474e-005  -4.1422143e-007            
6.7777407e-005  -4.1380455e-007            
6.7977341e-005  -4.1378835e-007            
6.8177274e-005  -4.1359801e-007            
6.8377208e-005  -4.1314056e-007            
6.8577141e-005  -4.1256927e-007            
6.8777074e-005  -4.1204265e-007            
6.8977008e-005  -4.1181254e-007            
6.9176941e-005  -4.1161157e-007            
6.9376874e-005  -4.1102757e-007            
6.9576808e-005  -4.1038244e-007            
6.9776741e-005  -4.0952818e-007            
6.9976674e-005  -4.0889408e-007            
7.0176608e-005  -4.0838309e-007            
7.0376541e-005  -4.0764758e-007            
7.0576474e-005  -4.0713547e-007            
7.0776408e-005  -4.0674768e-007            
7.0976341e-005  -4.0607488e-007            
7.1176275e-005  -4.0542522e-007            
7.1376208e-005  -4.0472954e-007            
7.1576141e-005  -4.0427212e-007            
7.1776075e-005  -4.0409206e-007            
7.1976008e-005  -4.0353738e-007            
7.2175941e-005  -4.0284546e-007            
7.2375875e-005  -4.0233101e-007            
7.2575808e-005  -4.0181874e-007            
7.2775741e-005  -4.0129525e-007            
7.2975675e-005  -4.0067694e-007            
7.3175608e-005  -4.0002487e-007            
7.3375541e-005  -3.9957982e-007            
7.3575475e-005  -3.9902348e-007            
7.3775408e-005  -3.9843106e-007            
7.3975342e-005  -3.9786489e-007            
7.4175275e-005  -3.974306e-007            
7.4375208e-005  -3.9688674e-007            
7.4575142e-005  -3.9629161e-007            
7.4775075e-005  -3.95714e-007            
7.4975008e-005  -3.9524844e-007            
7.5174942e-005  -3.9480581e-007            
7.5374875e-005  -3.9448405e-007            
7.5574808e-005  -3.9421836e-007            
7.5774742e-005  -3.9375594e-007            
7.5974675e-005  -3.9350682e-007            
7.6174608e-005  -3.9312218e-007            
7.6374542e-005  -3.9298351e-007            
7.6574475e-005  -3.929708e-007            
7.6774408e-005  -3.930798e-007            
7.6974342e-005  -3.9299487e-007            
7.7174275e-005  -3.926119e-007            
7.7374209e-005  -3.9246629e-007            
7.7574142e-005  -3.9268646e-007            
7.7774075e-005  -3.928549e-007            
7.7974009e-005  -3.9302117e-007            
7.8173942e-005  -3.9294737e-007            
7.8373875e-005  -3.9289946e-007            
7.8573809e-005  -3.9324196e-007            
7.8773742e-005  -3.9348998e-007            
7.8973675e-005  -3.9390597e-007            
7.9173609e-005  -3.9417894e-007            
7.9373542e-005  -3.9438798e-007            
7.9573475e-005  -3.9463706e-007            
7.9773409e-005  -3.9477359e-007            
7.9973342e-005  -3.9508252e-007            
8.0173276e-005  -3.9569263e-007            
8.0373209e-005  -3.9633304e-007            
8.0573142e-005  -3.9662312e-007            
8.0773076e-005  -3.9689775e-007            
8.0973009e-005  -3.9735425e-007            
8.1172942e-005  -3.9797601e-007            
8.1372876e-005  -3.9869206e-007            
8.1572809e-005  -3.9923745e-007            
8.1772742e-005  -3.9972105e-007            
8.1972676e-005  -4.0013403e-007            
8.2172609e-005  -4.0065696e-007            
8.2372542e-005  -4.0138314e-007            
8.2572476e-005  -4.0211236e-007            
8.2772409e-005  -4.0276427e-007            
8.2972343e-005  -4.0318949e-007            
8.3172276e-005  -4.0381654e-007            
8.3372209e-005  -4.0448758e-007            
8.3572143e-005  -4.0522407e-007            
8.3772076e-005  -4.0607557e-007            
8.3972009e-005  -4.0675372e-007            
8.4171943e-005  -4.0717111e-007            
8.4371876e-005  -4.0791773e-007            
8.4571809e-005  -4.0861187e-007            
8.4771743e-005  -4.0965222e-007            
8.4971676e-005  -4.1067461e-007            
8.5171609e-005  -4.1137461e-007            
8.5371543e-005  -4.1206466e-007            
8.5571476e-005  -4.1276569e-007            
8.5771409e-005  -4.1368256e-007            
8.5971343e-005  -4.1467069e-007            
8.6171276e-005  -4.1571222e-007            
8.637121e-005  -4.1658178e-007            
8.6571143e-005  -4.1725762e-007            
8.6771076e-005  -4.1796704e-007            
8.697101e-005  -4.189203e-007            
8.7170943e-005  -4.2001868e-007            
8.7370876e-005  -4.2109684e-007            
8.757081e-005  -4.2183061e-007            
8.7770743e-005  -4.225641e-007            
8.7970676e-005  -4.2353293e-007            
8.817061e-005  -4.24827e-007            
8.8370543e-005  -4.2594657e-007            
8.8570476e-005  -4.2709398e-007            
8.877041e-005  -4.2798699e-007            
8.8970343e-005  -4.2898759e-007            
8.9170277e-005  -4.299673e-007            
8.937021e-005  -4.3108542e-007            
8.9570143e-005  -4.3231674e-007            
8.9770077e-005  -4.3359402e-007            
8.997001e-005  -4.3466949e-007            
9.0169943e-005  -4.356721e-007            
9.0369877e-005  -4.3653288e-007            
9.056981e-005  -4.3764651e-007            
9.0769743e-005  -4.3896636e-007            
