Surface Profile             
x       y           
[m]     [m]         
0  -1.3369016e-009            
1.9993336e-007  -2.2546238e-009            
3.9986671e-007  -3.1079752e-009            
5.9980007e-007  -3.5494953e-009            
7.9973342e-007  -4.2565001e-009            
9.9966678e-007  -4.735498e-009            
1.1996001e-006  -5.1067186e-009            
1.3995335e-006  -5.5291063e-009            
1.5994668e-006  -6.3980493e-009            
1.7994002e-006  -6.9915644e-009            
1.9993336e-006  -7.8198781e-009            
2.1992669e-006  -8.4478625e-009            
2.3992003e-006  -8.9806235e-009            
2.5991336e-006  -9.6451361e-009            
2.799067e-006  -1.0281975e-008            
2.9990003e-006  -1.1140848e-008            
3.1989337e-006  -1.190192e-008            
3.398867e-006  -1.2474787e-008            
3.5988004e-006  -1.3072804e-008            
3.7987338e-006  -1.3647713e-008            
3.9986671e-006  -1.4170144e-008            
4.1986005e-006  -1.4846174e-008            
4.3985338e-006  -1.5487327e-008            
4.5984672e-006  -1.6170662e-008            
4.7984005e-006  -1.6539296e-008            
4.9983339e-006  -1.7040172e-008            
5.1982672e-006  -1.7599848e-008            
5.3982006e-006  -1.8428203e-008            
5.598134e-006  -1.9229322e-008            
5.7980673e-006  -1.9731237e-008            
5.9980007e-006  -2.001431e-008            
6.197934e-006  -2.0701293e-008            
6.3978674e-006  -2.1287804e-008            
6.5978007e-006  -2.2220023e-008            
6.7977341e-006  -2.2687645e-008            
6.9976674e-006  -2.3449099e-008            
7.1976008e-006  -2.3817376e-008            
7.3975342e-006  -2.496025e-008            
7.5974675e-006  -2.5318107e-008            
7.7974009e-006  -2.6285216e-008            
7.9973342e-006  -2.697407e-008            
8.1972676e-006  -2.7874355e-008            
8.3972009e-006  -2.83769e-008            
8.5971343e-006  -2.8769011e-008            
8.7970676e-006  -2.9558185e-008            
8.997001e-006  -3.0674229e-008            
9.1969344e-006  -3.1518199e-008            
9.3968677e-006  -3.2194774e-008            
9.5968011e-006  -3.2535143e-008            
9.7967344e-006  -3.3371511e-008            
9.9966678e-006  -3.4159533e-008            
1.0196601e-005  -3.5113459e-008            
1.0396534e-005  -3.5818501e-008            
1.0596468e-005  -3.6605938e-008            
1.0796401e-005  -3.714577e-008            
1.0996335e-005  -3.7759168e-008            
1.1196268e-005  -3.8377534e-008            
1.1396201e-005  -3.9434554e-008            
1.1596135e-005  -4.0605953e-008            
1.1796068e-005  -4.1415709e-008            
1.1996001e-005  -4.1964787e-008            
1.2195935e-005  -4.2737617e-008            
1.2395868e-005  -4.3684193e-008            
1.2595801e-005  -4.4919728e-008            
1.2795735e-005  -4.5833558e-008            
1.2995668e-005  -4.6644824e-008            
1.3195601e-005  -4.7282531e-008            
1.3395535e-005  -4.8122287e-008            
1.3595468e-005  -4.9161479e-008            
1.3795402e-005  -5.020658e-008            
1.3995335e-005  -5.1140345e-008            
1.4195268e-005  -5.2121407e-008            
1.4395202e-005  -5.2820068e-008            
1.4595135e-005  -5.3458153e-008            
1.4795068e-005  -5.4257794e-008            
1.4995002e-005  -5.5321185e-008            
1.5194935e-005  -5.6605027e-008            
1.5394868e-005  -5.7336308e-008            
1.5594802e-005  -5.8128399e-008            
1.5794735e-005  -5.8942201e-008            
1.5994668e-005  -6.0060884e-008            
1.6194602e-005  -6.1265313e-008            
1.6394535e-005  -6.2438041e-008            
1.6594469e-005  -6.3437925e-008            
1.6794402e-005  -6.4526916e-008            
1.6994335e-005  -6.5532455e-008            
1.7194269e-005  -6.67554e-008            
1.7394202e-005  -6.8103565e-008            
1.7594135e-005  -6.9429059e-008            
1.7794069e-005  -7.0689853e-008            
1.7994002e-005  -7.1696355e-008            
1.8193935e-005  -7.2857149e-008            
1.8393869e-005  -7.4189484e-008            
1.8593802e-005  -7.5626269e-008            
1.8793735e-005  -7.7138491e-008            
1.8993669e-005  -7.826407e-008            
1.9193602e-005  -7.9345477e-008            
1.9393535e-005  -8.0631696e-008            
1.9593469e-005  -8.1997414e-008            
1.9793402e-005  -8.3383698e-008            
1.9993336e-005  -8.4745438e-008            
2.0193269e-005  -8.6086697e-008            
2.0393202e-005  -8.7454512e-008            
2.0593136e-005  -8.8776407e-008            
2.0793069e-005  -8.9959665e-008            
2.0993002e-005  -9.1313286e-008            
2.1192936e-005  -9.276787e-008            
2.1392869e-005  -9.4221732e-008            
2.1592802e-005  -9.5536613e-008            
2.1792736e-005  -9.6748899e-008            
2.1992669e-005  -9.8281356e-008            
2.2192602e-005  -9.9624571e-008            
2.2392536e-005  -1.0110288e-007            
2.2592469e-005  -1.0250276e-007            
2.2792403e-005  -1.0385706e-007            
2.2992336e-005  -1.0523543e-007            
2.3192269e-005  -1.0646639e-007            
2.3392203e-005  -1.0789597e-007            
2.3592136e-005  -1.0939938e-007            
2.3792069e-005  -1.1085828e-007            
2.3992003e-005  -1.1200847e-007            
2.4191936e-005  -1.1327432e-007            
2.4391869e-005  -1.1468425e-007            
2.4591803e-005  -1.1620834e-007            
2.4791736e-005  -1.1756374e-007            
2.4991669e-005  -1.1884959e-007            
2.5191603e-005  -1.2023849e-007            
2.5391536e-005  -1.2185537e-007            
2.5591469e-005  -1.2353044e-007            
2.5791403e-005  -1.2490407e-007            
2.5991336e-005  -1.2623416e-007            
2.619127e-005  -1.2791909e-007            
2.6391203e-005  -1.294806e-007            
2.6591136e-005  -1.3089421e-007            
2.679107e-005  -1.3209259e-007            
2.6991003e-005  -1.3336354e-007            
2.7190936e-005  -1.3488376e-007            
2.739087e-005  -1.3629213e-007            
2.7590803e-005  -1.3727215e-007            
2.7790736e-005  -1.3840297e-007            
2.799067e-005  -1.3935414e-007            
2.8190603e-005  -1.4066874e-007            
2.8390536e-005  -1.418481e-007            
2.859047e-005  -1.4288695e-007            
2.8790403e-005  -1.4386071e-007            
2.8990337e-005  -1.4487547e-007            
2.919027e-005  -1.4589964e-007            
2.9390203e-005  -1.467769e-007            
2.9590137e-005  -1.4779825e-007            
2.979007e-005  -1.4905895e-007            
2.9990003e-005  -1.5019528e-007            
3.0189937e-005  -1.5109409e-007            
3.038987e-005  -1.5198901e-007            
3.0589803e-005  -1.5306794e-007            
3.0789737e-005  -1.5446504e-007            
3.098967e-005  -1.5568829e-007            
3.1189603e-005  -1.5657187e-007            
3.1389537e-005  -1.5761579e-007            
3.158947e-005  -1.5865957e-007            
3.1789404e-005  -1.59856e-007            
3.1989337e-005  -1.6103977e-007            
3.218927e-005  -1.6203484e-007            
3.2389204e-005  -1.6303391e-007            
3.2589137e-005  -1.6404933e-007            
3.278907e-005  -1.6487882e-007            
3.2989004e-005  -1.6587808e-007            
3.3188937e-005  -1.6712727e-007            
3.338887e-005  -1.6809316e-007            
3.3588804e-005  -1.6907469e-007            
3.3788737e-005  -1.6949743e-007            
3.398867e-005  -1.7064305e-007            
3.4188604e-005  -1.7178011e-007            
3.4388537e-005  -1.7290192e-007            
3.458847e-005  -1.739734e-007            
3.4788404e-005  -1.7484168e-007            
3.4988337e-005  -1.7599217e-007            
3.5188271e-005  -1.7696656e-007            
3.5388204e-005  -1.7836659e-007            
3.5588137e-005  -1.7954975e-007            
3.5788071e-005  -1.8094443e-007            
3.5988004e-005  -1.8208658e-007            
3.6187937e-005  -1.8320204e-007            
3.6387871e-005  -1.8420686e-007            
3.6587804e-005  -1.8542314e-007            
3.6787737e-005  -1.868595e-007            
3.6987671e-005  -1.88039e-007            
3.7187604e-005  -1.8892085e-007            
3.7387537e-005  -1.895676e-007            
3.7587471e-005  -1.9039002e-007            
3.7787404e-005  -1.9163918e-007            
3.7987338e-005  -1.9271559e-007            
3.8187271e-005  -1.9373529e-007            
3.8387204e-005  -1.9435963e-007            
3.8587138e-005  -1.9523363e-007            
3.8787071e-005  -1.9627207e-007            
3.8987004e-005  -1.9756184e-007            
3.9186938e-005  -1.9839128e-007            
3.9386871e-005  -1.9956113e-007            
3.9586804e-005  -2.0021358e-007            
3.9786738e-005  -2.0140756e-007            
3.9986671e-005  -2.0195571e-007            
4.0186604e-005  -2.0315191e-007            
4.0386538e-005  -2.0421054e-007            
4.0586471e-005  -2.053188e-007            
4.0786405e-005  -2.0626437e-007            
4.0986338e-005  -2.0721875e-007            
4.1186271e-005  -2.0817042e-007            
4.1386205e-005  -2.0904489e-007            
4.1586138e-005  -2.1003057e-007            
4.1786071e-005  -2.1093071e-007            
4.1986005e-005  -2.119259e-007            
4.2185938e-005  -2.1277344e-007            
4.2385871e-005  -2.133167e-007            
4.2585805e-005  -2.140109e-007            
4.2785738e-005  -2.1480003e-007            
4.2985671e-005  -2.1565633e-007            
4.3185605e-005  -2.1637163e-007            
4.3385538e-005  -2.1679563e-007            
4.3585471e-005  -2.1746135e-007            
4.3785405e-005  -2.1819726e-007            
4.3985338e-005  -2.1897837e-007            
4.4185272e-005  -2.1966447e-007            
4.4385205e-005  -2.2020717e-007            
4.4585138e-005  -2.2095432e-007            
4.4785072e-005  -2.2190699e-007            
4.4985005e-005  -2.2268477e-007            
4.5184938e-005  -2.2348357e-007            
4.5384872e-005  -2.2443743e-007            
4.5584805e-005  -2.2548286e-007            
4.5784738e-005  -2.2643391e-007            
4.5984672e-005  -2.2720395e-007            
4.6184605e-005  -2.2795195e-007            
4.6384538e-005  -2.2861756e-007            
4.6584472e-005  -2.2969111e-007            
4.6784405e-005  -2.3069587e-007            
4.6984339e-005  -2.3163342e-007            
4.7184272e-005  -2.3266088e-007            
4.7384205e-005  -2.3327759e-007            
4.7584139e-005  -2.3415052e-007            
4.7784072e-005  -2.3475211e-007            
4.7984005e-005  -2.3559757e-007            
4.8183939e-005  -2.3651602e-007            
4.8383872e-005  -2.3722783e-007            
4.8583805e-005  -2.3788716e-007            
4.8783739e-005  -2.3852885e-007            
4.8983672e-005  -2.3927048e-007            
4.9183605e-005  -2.4023805e-007            
4.9383539e-005  -2.4104036e-007            
4.9583472e-005  -2.4149818e-007            
4.9783406e-005  -2.4199771e-007            
4.9983339e-005  -2.4280639e-007            
5.0183272e-005  -2.4362635e-007            
5.0383206e-005  -2.4438153e-007            
5.0583139e-005  -2.4508576e-007            
5.0783072e-005  -2.4594998e-007            
5.0983006e-005  -2.466988e-007            
5.1182939e-005  -2.4726036e-007            
5.1382872e-005  -2.478759e-007            
5.1582806e-005  -2.4875628e-007            
5.1782739e-005  -2.497603e-007            
5.1982672e-005  -2.5029269e-007            
5.2182606e-005  -2.50652e-007            
5.2382539e-005  -2.5113112e-007            
5.2582472e-005  -2.5213539e-007            
5.2782406e-005  -2.5308119e-007            
5.2982339e-005  -2.5377825e-007            
5.3182273e-005  -2.5417554e-007            
5.3382206e-005  -2.549935e-007            
5.3582139e-005  -2.5591952e-007            
5.3782073e-005  -2.569046e-007            
5.3982006e-005  -2.5770791e-007            
5.4181939e-005  -2.5821879e-007            
5.4381873e-005  -2.5900293e-007            
5.4581806e-005  -2.5985036e-007            
5.4781739e-005  -2.6048117e-007            
5.4981673e-005  -2.6119164e-007            
5.5181606e-005  -2.618429e-007            
5.5381539e-005  -2.6270717e-007            
5.5581473e-005  -2.6353024e-007            
5.5781406e-005  -2.6379079e-007            
5.598134e-005  -2.6433766e-007            
5.6181273e-005  -2.6520889e-007            
5.6381206e-005  -2.6599088e-007            
5.658114e-005  -2.6661314e-007            
5.6781073e-005  -2.6705211e-007            
5.6981006e-005  -2.6759071e-007            
5.718094e-005  -2.6839064e-007            
5.7380873e-005  -2.6882116e-007            
5.7580806e-005  -2.6921236e-007            
5.778074e-005  -2.6977477e-007            
5.7980673e-005  -2.7046315e-007            
5.8180606e-005  -2.7098363e-007            
5.838054e-005  -2.7128825e-007            
5.8580473e-005  -2.7164593e-007            
5.8780407e-005  -2.7206333e-007            
5.898034e-005  -2.7250026e-007            
5.9180273e-005  -2.7289026e-007            
5.9380207e-005  -2.7312413e-007            
5.958014e-005  -2.7335066e-007            
5.9780073e-005  -2.7378947e-007            
5.9980007e-005  -2.7388493e-007            
6.017994e-005  -2.7404453e-007            
6.0379873e-005  -2.7437046e-007            
6.0579807e-005  -2.7474451e-007            
6.077974e-005  -2.7509928e-007            
6.0979673e-005  -2.7498077e-007            
6.1179607e-005  -2.7497955e-007            
6.137954e-005  -2.7517654e-007            
6.1579473e-005  -2.7582262e-007            
6.1779407e-005  -2.7630459e-007            
6.197934e-005  -2.7638737e-007            
6.2179274e-005  -2.7636089e-007            
6.2379207e-005  -2.7664727e-007            
6.257914e-005  -2.7693295e-007            
6.2779074e-005  -2.7724057e-007            
6.2979007e-005  -2.7750139e-007            
6.317894e-005  -2.7778782e-007            
6.3378874e-005  -2.7827678e-007            
6.3578807e-005  -2.7861356e-007            
6.377874e-005  -2.7883909e-007            
6.3978674e-005  -2.7916906e-007            
6.4178607e-005  -2.7959233e-007            
6.437854e-005  -2.800905e-007            
6.4578474e-005  -2.8046658e-007            
6.4778407e-005  -2.8076544e-007            
6.4978341e-005  -2.8116478e-007            
6.5178274e-005  -2.8163507e-007            
6.5378207e-005  -2.8212118e-007            
6.5578141e-005  -2.8263672e-007            
6.5778074e-005  -2.8305396e-007            
6.5978007e-005  -2.835712e-007            
6.6177941e-005  -2.8425094e-007            
6.6377874e-005  -2.8492393e-007            
6.6577807e-005  -2.8557241e-007            
6.6777741e-005  -2.8611698e-007            
6.6977674e-005  -2.8678376e-007            
6.7177607e-005  -2.875379e-007            
6.7377541e-005  -2.8821194e-007            
6.7577474e-005  -2.8869383e-007            
6.7777407e-005  -2.8899042e-007            
6.7977341e-005  -2.8958046e-007            
6.8177274e-005  -2.9011823e-007            
6.8377208e-005  -2.9045196e-007            
6.8577141e-005  -2.9079054e-007            
6.8777074e-005  -2.9123386e-007            
6.8977008e-005  -2.9169715e-007            
6.9176941e-005  -2.9202707e-007            
6.9376874e-005  -2.9225209e-007            
6.9576808e-005  -2.9271339e-007            
6.9776741e-005  -2.9322531e-007            
6.9976674e-005  -2.9351157e-007            
7.0176608e-005  -2.9391213e-007            
7.0376541e-005  -2.9412827e-007            
7.0576474e-005  -2.9437244e-007            
7.0776408e-005  -2.9469543e-007            
7.0976341e-005  -2.9474807e-007            
7.1176275e-005  -2.9497034e-007            
7.1376208e-005  -2.9504406e-007            
7.1576141e-005  -2.9520794e-007            
7.1776075e-005  -2.9532093e-007            
7.1976008e-005  -2.9546882e-007            
7.2175941e-005  -2.9540495e-007            
7.2375875e-005  -2.9554453e-007            
7.2575808e-005  -2.9526918e-007            
7.2775741e-005  -2.9539524e-007            
7.2975675e-005  -2.9549174e-007            
7.3175608e-005  -2.9572132e-007            
7.3375541e-005  -2.9570911e-007            
7.3575475e-005  -2.9582782e-007            
7.3775408e-005  -2.9594902e-007            
7.3975342e-005  -2.9598883e-007            
7.4175275e-005  -2.9637447e-007            
7.4375208e-005  -2.9663238e-007            
7.4575142e-005  -2.9692942e-007            
7.4775075e-005  -2.9716609e-007            
7.4975008e-005  -2.9756437e-007            
7.5174942e-005  -2.9794861e-007            
7.5374875e-005  -2.9839267e-007            
7.5574808e-005  -2.9882573e-007            
7.5774742e-005  -2.9897947e-007            
7.5974675e-005  -2.9908866e-007            
7.6174608e-005  -2.9913446e-007            
7.6374542e-005  -2.9912235e-007            
7.6574475e-005  -2.9934565e-007            
7.6774408e-005  -2.9953742e-007            
7.6974342e-005  -2.9970781e-007            
7.7174275e-005  -2.9961361e-007            
7.7374209e-005  -2.9951277e-007            
7.7574142e-005  -2.9961904e-007            
7.7774075e-005  -2.9958447e-007            
7.7974009e-005  -2.9959681e-007            
7.8173942e-005  -2.9964935e-007            
7.8373875e-005  -2.9954929e-007            
7.8573809e-005  -2.9943834e-007            
7.8773742e-005  -2.9938653e-007            
7.8973675e-005  -2.9948307e-007            
7.9173609e-005  -2.9962774e-007            
7.9373542e-005  -2.9950615e-007            
7.9573475e-005  -2.9946391e-007            
7.9773409e-005  -2.993341e-007            
7.9973342e-005  -2.9939069e-007            
8.0173276e-005  -2.9946155e-007            
8.0373209e-005  -2.9939993e-007            
8.0573142e-005  -2.992401e-007            
8.0773076e-005  -2.9904483e-007            
8.0973009e-005  -2.989031e-007            
8.1172942e-005  -2.9874255e-007            
8.1372876e-005  -2.984261e-007            
8.1572809e-005  -2.9798096e-007            
8.1772742e-005  -2.9778964e-007            
8.1972676e-005  -2.9759814e-007            
8.2172609e-005  -2.9732733e-007            
8.2372542e-005  -2.968885e-007            
8.2572476e-005  -2.9643401e-007            
8.2772409e-005  -2.961173e-007            
8.2972343e-005  -2.9576508e-007            
8.3172276e-005  -2.9540669e-007            
8.3372209e-005  -2.9519412e-007            
8.3572143e-005  -2.9482015e-007            
8.3772076e-005  -2.9448847e-007            
8.3972009e-005  -2.9392611e-007            
8.4171943e-005  -2.9344928e-007            
8.4371876e-005  -2.9322509e-007            
8.4571809e-005  -2.9304539e-007            
8.4771743e-005  -2.9262299e-007            
8.4971676e-005  -2.9212694e-007            
8.5171609e-005  -2.916197e-007            
8.5371543e-005  -2.9127795e-007            
8.5571476e-005  -2.9103098e-007            
8.5771409e-005  -2.9067342e-007            
8.5971343e-005  -2.9008781e-007            
8.6171276e-005  -2.8938252e-007            
8.637121e-005  -2.8884661e-007            
8.6571143e-005  -2.8830673e-007            
8.6771076e-005  -2.8802223e-007            
8.697101e-005  -2.8770759e-007            
8.7170943e-005  -2.8719008e-007            
8.7370876e-005  -2.8660481e-007            
8.757081e-005  -2.8593777e-007            
8.7770743e-005  -2.8526009e-007            
8.7970676e-005  -2.847372e-007            
8.817061e-005  -2.843683e-007            
8.8370543e-005  -2.8361011e-007            
8.8570476e-005  -2.8277542e-007            
8.877041e-005  -2.8182528e-007            
8.8970343e-005  -2.8119106e-007            
8.9170277e-005  -2.8053192e-007            
8.937021e-005  -2.7963476e-007            
8.9570143e-005  -2.7861253e-007            
8.9770077e-005  -2.7755156e-007            
8.997001e-005  -2.7653349e-007            
9.0169943e-005  -2.7553721e-007            
9.0369877e-005  -2.743832e-007            
9.056981e-005  -2.7314409e-007            
9.0769743e-005  -2.7201428e-007            
