Surface Profile             
x       y           
[m]     [m]         
0  6.1690659e-010            
1.9993336e-007  1.4525343e-009            
3.9986671e-007  2.2852962e-009            
5.9980007e-007  2.8984376e-009            
7.9973342e-007  3.470303e-009            
9.9966678e-007  4.0470984e-009            
1.1996001e-006  4.3333909e-009            
1.3995335e-006  4.8308167e-009            
1.5994668e-006  5.3177169e-009            
1.7994002e-006  5.8399675e-009            
1.9993336e-006  6.6776501e-009            
2.1992669e-006  7.3414934e-009            
2.3992003e-006  7.6928048e-009            
2.5991336e-006  8.2193896e-009            
2.799067e-006  8.8337692e-009            
2.9990003e-006  9.4953902e-009            
3.1989337e-006  1.01721e-008            
3.398867e-006  1.0526298e-008            
3.5988004e-006  1.1181302e-008            
3.7987338e-006  1.1805035e-008            
3.9986671e-006  1.2513653e-008            
4.1986005e-006  1.3260879e-008            
4.3985338e-006  1.3993071e-008            
4.5984672e-006  1.4847006e-008            
4.7984005e-006  1.5666203e-008            
4.9983339e-006  1.6299924e-008            
5.1982672e-006  1.6797753e-008            
5.3982006e-006  1.7569726e-008            
5.598134e-006  1.8614719e-008            
5.7980673e-006  1.9543319e-008            
5.9980007e-006  2.0314276e-008            
6.197934e-006  2.093645e-008            
6.3978674e-006  2.176708e-008            
6.5978007e-006  2.2654584e-008            
6.7977341e-006  2.3486578e-008            
6.9976674e-006  2.4161074e-008            
7.1976008e-006  2.493027e-008            
7.3975342e-006  2.5885522e-008            
7.5974675e-006  2.6806306e-008            
7.7974009e-006  2.775525e-008            
7.9973342e-006  2.8838291e-008            
8.1972676e-006  2.9926072e-008            
8.3972009e-006  3.100513e-008            
8.5971343e-006  3.1912255e-008            
8.7970676e-006  3.2945671e-008            
8.997001e-006  3.4129105e-008            
9.1969344e-006  3.557744e-008            
9.3968677e-006  3.6874803e-008            
9.5968011e-006  3.7824066e-008            
9.7967344e-006  3.8750046e-008            
9.9966678e-006  4.0039845e-008            
1.0196601e-005  4.1302494e-008            
1.0396534e-005  4.2648751e-008            
1.0596468e-005  4.3569507e-008            
1.0796401e-005  4.455223e-008            
1.0996335e-005  4.5403072e-008            
1.1196268e-005  4.632321e-008            
1.1396201e-005  4.7287093e-008            
1.1596135e-005  4.84037e-008            
1.1796068e-005  4.9520646e-008            
1.1996001e-005  5.0575806e-008            
1.2195935e-005  5.1406349e-008            
1.2395868e-005  5.2069559e-008            
1.2595801e-005  5.3034741e-008            
1.2795735e-005  5.4269232e-008            
1.2995668e-005  5.5289222e-008            
1.3195601e-005  5.6164044e-008            
1.3395535e-005  5.6815808e-008            
1.3595468e-005  5.7695071e-008            
1.3795402e-005  5.8620419e-008            
1.3995335e-005  5.9735586e-008            
1.4195268e-005  6.0596344e-008            
1.4395202e-005  6.1234927e-008            
1.4595135e-005  6.182467e-008            
1.4795068e-005  6.2411449e-008            
1.4995002e-005  6.2899673e-008            
1.5194935e-005  6.3709659e-008            
1.5394868e-005  6.4469351e-008            
1.5594802e-005  6.5039597e-008            
1.5794735e-005  6.532888e-008            
1.5994668e-005  6.5486068e-008            
1.6194602e-005  6.6136655e-008            
1.6394535e-005  6.6890631e-008            
1.6594469e-005  6.7524083e-008            
1.6794402e-005  6.8049138e-008            
1.6994335e-005  6.8292699e-008            
1.7194269e-005  6.8904377e-008            
1.7394202e-005  6.9287882e-008            
1.7594135e-005  6.990234e-008            
1.7794069e-005  7.0346797e-008            
1.7994002e-005  7.0747704e-008            
1.8193935e-005  7.1154098e-008            
1.8393869e-005  7.1537616e-008            
1.8593802e-005  7.2092737e-008            
1.8793735e-005  7.2778654e-008            
1.8993669e-005  7.3460399e-008            
1.9193602e-005  7.4027075e-008            
1.9393535e-005  7.4434254e-008            
1.9593469e-005  7.4833709e-008            
1.9793402e-005  7.5573572e-008            
1.9993336e-005  7.6482386e-008            
2.0193269e-005  7.7233825e-008            
2.0393202e-005  7.8043147e-008            
2.0593136e-005  7.8650007e-008            
2.0793069e-005  7.9556339e-008            
2.0993002e-005  8.0512895e-008            
2.1192936e-005  8.151471e-008            
2.1392869e-005  8.2482846e-008            
2.1592802e-005  8.3388484e-008            
2.1792736e-005  8.4279206e-008            
2.1992669e-005  8.5198647e-008            
2.2192602e-005  8.6171725e-008            
2.2392536e-005  8.7221194e-008            
2.2592469e-005  8.8376543e-008            
2.2792403e-005  8.9205699e-008            
2.2992336e-005  9.0302845e-008            
2.3192269e-005  9.1217651e-008            
2.3392203e-005  9.2208421e-008            
2.3592136e-005  9.3454874e-008            
2.3792069e-005  9.451926e-008            
2.3992003e-005  9.5832308e-008            
2.4191936e-005  9.7132647e-008            
2.4391869e-005  9.8264806e-008            
2.4591803e-005  9.9330431e-008            
2.4791736e-005  1.0058578e-007            
2.4991669e-005  1.0187343e-007            
2.5191603e-005  1.0319704e-007            
2.5391536e-005  1.0420371e-007            
2.5591469e-005  1.0539692e-007            
2.5791403e-005  1.0649722e-007            
2.5991336e-005  1.0785462e-007            
2.619127e-005  1.0922428e-007            
2.6391203e-005  1.104285e-007            
2.6591136e-005  1.1160985e-007            
2.679107e-005  1.1278402e-007            
2.6991003e-005  1.141946e-007            
2.7190936e-005  1.1567759e-007            
2.739087e-005  1.1724596e-007            
2.7590803e-005  1.1887784e-007            
2.7790736e-005  1.2044655e-007            
2.799067e-005  1.2182584e-007            
2.8190603e-005  1.2330527e-007            
2.8390536e-005  1.2510595e-007            
2.859047e-005  1.2690003e-007            
2.8790403e-005  1.2875461e-007            
2.8990337e-005  1.303912e-007            
2.919027e-005  1.3199783e-007            
2.9390203e-005  1.3364588e-007            
2.9590137e-005  1.3538852e-007            
2.979007e-005  1.3723543e-007            
2.9990003e-005  1.388246e-007            
3.0189937e-005  1.4040132e-007            
3.038987e-005  1.4207683e-007            
3.0589803e-005  1.4367734e-007            
3.0789737e-005  1.4551e-007            
3.098967e-005  1.473149e-007            
3.1189603e-005  1.4900132e-007            
3.1389537e-005  1.5072901e-007            
3.158947e-005  1.5220161e-007            
3.1789404e-005  1.5384683e-007            
3.1989337e-005  1.5583393e-007            
3.218927e-005  1.5786979e-007            
3.2389204e-005  1.5978051e-007            
3.2589137e-005  1.6151274e-007            
3.278907e-005  1.6329794e-007            
3.2989004e-005  1.6533748e-007            
3.3188937e-005  1.6734734e-007            
3.338887e-005  1.6930997e-007            
3.3588804e-005  1.711686e-007            
3.3788737e-005  1.728698e-007            
3.398867e-005  1.7471311e-007            
3.4188604e-005  1.7658919e-007            
3.4388537e-005  1.7826643e-007            
3.458847e-005  1.8006259e-007            
3.4788404e-005  1.8179118e-007            
3.4988337e-005  1.8337266e-007            
3.5188271e-005  1.8491698e-007            
3.5388204e-005  1.8660286e-007            
3.5588137e-005  1.8859571e-007            
3.5788071e-005  1.9059786e-007            
3.5988004e-005  1.9231115e-007            
3.6187937e-005  1.9379814e-007            
3.6387871e-005  1.9516637e-007            
3.6587804e-005  1.9699886e-007            
3.6787737e-005  1.9897763e-007            
3.6987671e-005  2.0082389e-007            
3.7187604e-005  2.024649e-007            
3.7387537e-005  2.0426726e-007            
3.7587471e-005  2.0601056e-007            
3.7787404e-005  2.0783935e-007            
3.7987338e-005  2.098177e-007            
3.8187271e-005  2.117973e-007            
3.8387204e-005  2.137824e-007            
3.8587138e-005  2.1537158e-007            
3.8787071e-005  2.1705207e-007            
3.8987004e-005  2.1871491e-007            
3.9186938e-005  2.2082133e-007            
3.9386871e-005  2.2269775e-007            
3.9586804e-005  2.2437371e-007            
3.9786738e-005  2.2589641e-007            
3.9986671e-005  2.2745086e-007            
4.0186604e-005  2.2895735e-007            
4.0386538e-005  2.3073985e-007            
4.0586471e-005  2.3238954e-007            
4.0786405e-005  2.3409068e-007            
4.0986338e-005  2.3563124e-007            
4.1186271e-005  2.369828e-007            
4.1386205e-005  2.3864927e-007            
4.1586138e-005  2.4034039e-007            
4.1786071e-005  2.4214979e-007            
4.1986005e-005  2.4404576e-007            
4.2185938e-005  2.4571534e-007            
4.2385871e-005  2.4733391e-007            
4.2585805e-005  2.4892391e-007            
4.2785738e-005  2.5074842e-007            
4.2985671e-005  2.5282784e-007            
4.3185605e-005  2.5476871e-007            
4.3385538e-005  2.565785e-007            
4.3585471e-005  2.5855873e-007            
4.3785405e-005  2.6053829e-007            
4.3985338e-005  2.6268855e-007            
4.4185272e-005  2.6459847e-007            
4.4385205e-005  2.6630474e-007            
4.4585138e-005  2.6831935e-007            
4.4785072e-005  2.7009752e-007            
4.4985005e-005  2.7186924e-007            
4.5184938e-005  2.7355506e-007            
4.5384872e-005  2.7541284e-007            
4.5584805e-005  2.7722817e-007            
4.5784738e-005  2.7891998e-007            
4.5984672e-005  2.804939e-007            
4.6184605e-005  2.823204e-007            
4.6384538e-005  2.841634e-007            
4.6584472e-005  2.8630673e-007            
4.6784405e-005  2.8809489e-007            
4.6984339e-005  2.8989518e-007            
4.7184272e-005  2.9155286e-007            
4.7384205e-005  2.933943e-007            
4.7584139e-005  2.9539859e-007            
4.7784072e-005  2.974999e-007            
4.7984005e-005  2.9936486e-007            
4.8183939e-005  3.0144697e-007            
4.8383872e-005  3.0329608e-007            
4.8583805e-005  3.0529066e-007            
4.8783739e-005  3.07159e-007            
4.8983672e-005  3.0901413e-007            
4.9183605e-005  3.1091451e-007            
4.9383539e-005  3.1262406e-007            
4.9583472e-005  3.1421175e-007            
4.9783406e-005  3.1563975e-007            
4.9983339e-005  3.172153e-007            
5.0183272e-005  3.1903e-007            
5.0383206e-005  3.2079606e-007            
5.0583139e-005  3.2230091e-007            
5.0783072e-005  3.237739e-007            
5.0983006e-005  3.2538911e-007            
5.1182939e-005  3.2707472e-007            
5.1382872e-005  3.2889936e-007            
5.1582806e-005  3.3048902e-007            
5.1782739e-005  3.3204539e-007            
5.1982672e-005  3.3347521e-007            
5.2182606e-005  3.3495574e-007            
5.2382539e-005  3.3668193e-007            
5.2582472e-005  3.3857591e-007            
5.2782406e-005  3.4044713e-007            
5.2982339e-005  3.4221429e-007            
5.3182273e-005  3.4375756e-007            
5.3382206e-005  3.4517908e-007            
5.3582139e-005  3.4698175e-007            
5.3782073e-005  3.4871484e-007            
5.3982006e-005  3.5054179e-007            
5.4181939e-005  3.5179562e-007            
5.4381873e-005  3.532622e-007            
5.4581806e-005  3.5471546e-007            
5.4781739e-005  3.5621828e-007            
5.4981673e-005  3.5784221e-007            
5.5181606e-005  3.591149e-007            
5.5381539e-005  3.6062814e-007            
5.5581473e-005  3.6199121e-007            
5.5781406e-005  3.6316708e-007            
5.598134e-005  3.645475e-007            
5.6181273e-005  3.6615665e-007            
5.6381206e-005  3.6796016e-007            
5.658114e-005  3.6959138e-007            
5.6781073e-005  3.7077569e-007            
5.6981006e-005  3.7211971e-007            
5.718094e-005  3.7375955e-007            
5.7380873e-005  3.7543909e-007            
5.7580806e-005  3.7719461e-007            
5.778074e-005  3.7878373e-007            
5.7980673e-005  3.7990005e-007            
5.8180606e-005  3.8139178e-007            
5.838054e-005  3.8287354e-007            
5.8580473e-005  3.8434977e-007            
5.8780407e-005  3.8592505e-007            
5.898034e-005  3.8727491e-007            
5.9180273e-005  3.8839444e-007            
5.9380207e-005  3.8978225e-007            
5.958014e-005  3.9108341e-007            
5.9780073e-005  3.9243223e-007            
5.9980007e-005  3.9376378e-007            
6.017994e-005  3.9487744e-007            
6.0379873e-005  3.9586924e-007            
6.0579807e-005  3.9702021e-007            
6.077974e-005  3.9840974e-007            
6.0979673e-005  3.9963194e-007            
6.1179607e-005  4.0066019e-007            
6.137954e-005  4.0157133e-007            
6.1579473e-005  4.0239487e-007            
6.1779407e-005  4.033712e-007            
6.197934e-005  4.042343e-007            
6.2179274e-005  4.052245e-007            
6.2379207e-005  4.0618944e-007            
6.257914e-005  4.0694683e-007            
6.2779074e-005  4.0766287e-007            
6.2979007e-005  4.0832341e-007            
6.317894e-005  4.0912855e-007            
6.3378874e-005  4.1009481e-007            
6.3578807e-005  4.1085951e-007            
6.377874e-005  4.1146724e-007            
6.3978674e-005  4.120789e-007            
6.4178607e-005  4.126309e-007            
6.437854e-005  4.1345413e-007            
6.4578474e-005  4.1421722e-007            
6.4778407e-005  4.1476189e-007            
6.4978341e-005  4.1536105e-007            
6.5178274e-005  4.1592425e-007            
6.5378207e-005  4.1640755e-007            
6.5578141e-005  4.1696219e-007            
6.5778074e-005  4.174174e-007            
6.5978007e-005  4.1798371e-007            
6.6177941e-005  4.1839823e-007            
6.6377874e-005  4.1878755e-007            
6.6577807e-005  4.1921617e-007            
6.6777741e-005  4.197589e-007            
6.6977674e-005  4.2010944e-007            
6.7177607e-005  4.2040147e-007            
6.7377541e-005  4.2077989e-007            
6.7577474e-005  4.2136028e-007            
6.7777407e-005  4.2164931e-007            
6.7977341e-005  4.2184364e-007            
6.8177274e-005  4.2212901e-007            
6.8377208e-005  4.2244152e-007            
6.8577141e-005  4.2284208e-007            
6.8777074e-005  4.229812e-007            
6.8977008e-005  4.2317578e-007            
6.9176941e-005  4.2344293e-007            
6.9376874e-005  4.2370258e-007            
6.9576808e-005  4.2393024e-007            
6.9776741e-005  4.2411268e-007            
6.9976674e-005  4.2415857e-007            
7.0176608e-005  4.2436743e-007            
7.0376541e-005  4.2457805e-007            
7.0576474e-005  4.2476946e-007            
7.0776408e-005  4.2501087e-007            
7.0976341e-005  4.2516816e-007            
7.1176275e-005  4.2545071e-007            
7.1376208e-005  4.2557522e-007            
7.1576141e-005  4.255773e-007            
7.1776075e-005  4.2566566e-007            
7.1976008e-005  4.2609435e-007            
7.2175941e-005  4.2641477e-007            
7.2375875e-005  4.2649113e-007            
7.2575808e-005  4.2644136e-007            
7.2775741e-005  4.2646186e-007            
7.2975675e-005  4.2667454e-007            
7.3175608e-005  4.2670475e-007            
7.3375541e-005  4.2685566e-007            
7.3575475e-005  4.2690061e-007            
7.3775408e-005  4.2678713e-007            
7.3975342e-005  4.2680498e-007            
7.4175275e-005  4.2665077e-007            
7.4375208e-005  4.266205e-007            
7.4575142e-005  4.2649786e-007            
7.4775075e-005  4.2637044e-007            
7.4975008e-005  4.2613585e-007            
7.5174942e-005  4.2571153e-007            
7.5374875e-005  4.2535874e-007            
7.5574808e-005  4.2509752e-007            
7.5774742e-005  4.2455835e-007            
7.5974675e-005  4.2419492e-007            
7.6174608e-005  4.2373855e-007            
7.6374542e-005  4.2336862e-007            
7.6574475e-005  4.231679e-007            
7.6774408e-005  4.230683e-007            
7.6974342e-005  4.2309074e-007            
7.7174275e-005  4.228119e-007            
7.7374209e-005  4.2258743e-007            
7.7574142e-005  4.2251916e-007            
7.7774075e-005  4.2248049e-007            
7.7974009e-005  4.2247653e-007            
7.8173942e-005  4.2252119e-007            
7.8373875e-005  4.2245482e-007            
7.8573809e-005  4.2221936e-007            
7.8773742e-005  4.2212241e-007            
7.8973675e-005  4.2212462e-007            
7.9173609e-005  4.2220485e-007            
7.9373542e-005  4.2232313e-007            
7.9573475e-005  4.2223125e-007            
7.9773409e-005  4.2192618e-007            
7.9973342e-005  4.2165577e-007            
8.0173276e-005  4.217016e-007            
8.0373209e-005  4.217795e-007            
8.0573142e-005  4.2177665e-007            
8.0773076e-005  4.2154947e-007            
8.0973009e-005  4.2122791e-007            
8.1172942e-005  4.2120289e-007            
8.1372876e-005  4.2124907e-007            
8.1572809e-005  4.2120197e-007            
8.1772742e-005  4.2109674e-007            
8.1972676e-005  4.2105694e-007            
8.2172609e-005  4.2115926e-007            
8.2372542e-005  4.2105844e-007            
8.2572476e-005  4.2091007e-007            
8.2772409e-005  4.2105635e-007            
8.2972343e-005  4.2123036e-007            
8.3172276e-005  4.2118762e-007            
8.3372209e-005  4.2107266e-007            
8.3572143e-005  4.2097585e-007            
8.3772076e-005  4.2116586e-007            
8.3972009e-005  4.2133798e-007            
8.4171943e-005  4.2146337e-007            
8.4371876e-005  4.2151537e-007            
8.4571809e-005  4.214923e-007            
8.4771743e-005  4.2172454e-007            
8.4971676e-005  4.219568e-007            
8.5171609e-005  4.2199962e-007            
8.5371543e-005  4.2205254e-007            
8.5571476e-005  4.2226644e-007            
8.5771409e-005  4.2249402e-007            
8.5971343e-005  4.2284035e-007            
8.6171276e-005  4.2294044e-007            
8.637121e-005  4.2296272e-007            
8.6571143e-005  4.2313381e-007            
8.6771076e-005  4.233287e-007            
8.697101e-005  4.2348437e-007            
8.7170943e-005  4.2358924e-007            
8.7370876e-005  4.2371865e-007            
8.757081e-005  4.2383149e-007            
8.7770743e-005  4.2399819e-007            
8.7970676e-005  4.2419773e-007            
8.817061e-005  4.2445409e-007            
8.8370543e-005  4.2496978e-007            
8.8570476e-005  4.2516825e-007            
8.877041e-005  4.2539596e-007            
8.8970343e-005  4.254233e-007            
8.9170277e-005  4.2574532e-007            
8.937021e-005  4.2602581e-007            
8.9570143e-005  4.2647013e-007            
8.9770077e-005  4.2678833e-007            
8.997001e-005  4.2698717e-007            
9.0169943e-005  4.2754146e-007            
9.0369877e-005  4.2790402e-007            
9.056981e-005  4.2834907e-007            
9.0769743e-005  4.2884667e-007            
9.0969677e-005  4.2933972e-007            
9.116961e-005  4.2981825e-007            
9.1369543e-005  4.3017146e-007            
9.1569477e-005  4.3047427e-007            
9.176941e-005  4.3099401e-007            
9.1969344e-005  4.3141028e-007            
9.2169277e-005  4.3173531e-007            
9.236921e-005  4.3208042e-007            
9.2569144e-005  4.3236849e-007            
9.2769077e-005  4.3294678e-007            
9.296901e-005  4.3329778e-007            
