Surface Profile             
x       y           
[m]     [m]         
0  -7.8599467e-009            
1.9993336e-007  -1.1341312e-008            
3.9986671e-007  -1.4710195e-008            
5.9980007e-007  -1.7313108e-008            
7.9973342e-007  -1.9580784e-008            
9.9966678e-007  -2.1941773e-008            
1.1996001e-006  -2.4237082e-008            
1.3995335e-006  -2.6597919e-008            
1.5994668e-006  -2.9140291e-008            
1.7994002e-006  -3.1447551e-008            
1.9993336e-006  -3.4200459e-008            
2.1992669e-006  -3.7167555e-008            
2.3992003e-006  -4.00901e-008            
2.5991336e-006  -4.3028579e-008            
2.799067e-006  -4.5944933e-008            
2.9990003e-006  -4.8811044e-008            
3.1989337e-006  -5.1701132e-008            
3.398867e-006  -5.4608036e-008            
3.5988004e-006  -5.7346947e-008            
3.7987338e-006  -5.984318e-008            
3.9986671e-006  -6.2257669e-008            
4.1986005e-006  -6.4593661e-008            
4.3985338e-006  -6.6888225e-008            
4.5984672e-006  -6.9067926e-008            
4.7984005e-006  -7.1332566e-008            
4.9983339e-006  -7.3476999e-008            
5.1982672e-006  -7.5439287e-008            
5.3982006e-006  -7.736594e-008            
5.598134e-006  -7.9217761e-008            
5.7980673e-006  -8.1186921e-008            
5.9980007e-006  -8.2975531e-008            
6.197934e-006  -8.4680251e-008            
6.3978674e-006  -8.6425258e-008            
6.5978007e-006  -8.7897474e-008            
6.7977341e-006  -8.9541535e-008            
6.9976674e-006  -9.0889278e-008            
7.1976008e-006  -9.2273516e-008            
7.3975342e-006  -9.3626151e-008            
7.5974675e-006  -9.4893868e-008            
7.7974009e-006  -9.6052802e-008            
7.9973342e-006  -9.7223349e-008            
8.1972676e-006  -9.8313919e-008            
8.3972009e-006  -9.9644241e-008            
8.5971343e-006  -1.0055621e-007            
8.7970676e-006  -1.0146324e-007            
8.997001e-006  -1.0226337e-007            
9.1969344e-006  -1.0311512e-007            
9.3968677e-006  -1.0407645e-007            
9.5968011e-006  -1.0468698e-007            
9.7967344e-006  -1.0517847e-007            
9.9966678e-006  -1.0581215e-007            
1.0196601e-005  -1.0638336e-007            
1.0396534e-005  -1.0662299e-007            
1.0596468e-005  -1.069351e-007            
1.0796401e-005  -1.0719048e-007            
1.0996335e-005  -1.0742214e-007            
1.1196268e-005  -1.0756921e-007            
1.1396201e-005  -1.07506e-007            
1.1596135e-005  -1.0749509e-007            
1.1796068e-005  -1.0735972e-007            
1.1996001e-005  -1.0711849e-007            
1.2195935e-005  -1.0670149e-007            
1.2395868e-005  -1.0635586e-007            
1.2595801e-005  -1.0603871e-007            
1.2795735e-005  -1.0556554e-007            
1.2995668e-005  -1.0476929e-007            
1.3195601e-005  -1.0397258e-007            
1.3395535e-005  -1.0315129e-007            
1.3595468e-005  -1.025933e-007            
1.3795402e-005  -1.0183913e-007            
1.3995335e-005  -1.0098854e-007            
1.4195268e-005  -1.0014066e-007            
1.4395202e-005  -9.9295404e-008            
1.4595135e-005  -9.8459572e-008            
1.4795068e-005  -9.7556425e-008            
1.4995002e-005  -9.6334933e-008            
1.5194935e-005  -9.5434526e-008            
1.5394868e-005  -9.4422932e-008            
1.5594802e-005  -9.3505966e-008            
1.5794735e-005  -9.2262484e-008            
1.5994668e-005  -9.1087549e-008            
1.6194602e-005  -9.017932e-008            
1.6394535e-005  -8.9023431e-008            
1.6594469e-005  -8.7717772e-008            
1.6794402e-005  -8.6417741e-008            
1.6994335e-005  -8.5014071e-008            
1.7194269e-005  -8.3662526e-008            
1.7394202e-005  -8.2321808e-008            
1.7594135e-005  -8.0885377e-008            
1.7794069e-005  -7.9499812e-008            
1.7994002e-005  -7.8245139e-008            
1.8193935e-005  -7.6799201e-008            
1.8393869e-005  -7.5584972e-008            
1.8593802e-005  -7.3988851e-008            
1.8793735e-005  -7.2636024e-008            
1.8993669e-005  -7.1443213e-008            
1.9193602e-005  -7.02396e-008            
1.9393535e-005  -6.870316e-008            
1.9593469e-005  -6.7279201e-008            
1.9793402e-005  -6.6077717e-008            
1.9993336e-005  -6.5014428e-008            
2.0193269e-005  -6.3783879e-008            
2.0393202e-005  -6.2376895e-008            
2.0593136e-005  -6.1101591e-008            
2.0793069e-005  -5.9889941e-008            
2.0993002e-005  -5.8521561e-008            
2.1192936e-005  -5.6995424e-008            
2.1392869e-005  -5.5706735e-008            
2.1592802e-005  -5.4579995e-008            
2.1792736e-005  -5.3126572e-008            
2.1992669e-005  -5.1431683e-008            
2.2192602e-005  -4.9779189e-008            
2.2392536e-005  -4.844884e-008            
2.2592469e-005  -4.7369024e-008            
2.2792403e-005  -4.5855356e-008            
2.2992336e-005  -4.4320195e-008            
2.3192269e-005  -4.2900434e-008            
2.3392203e-005  -4.1620189e-008            
2.3592136e-005  -4.0440958e-008            
2.3792069e-005  -3.9209424e-008            
2.3992003e-005  -3.7825077e-008            
2.4191936e-005  -3.6394923e-008            
2.4391869e-005  -3.5026664e-008            
2.4591803e-005  -3.3638098e-008            
2.4791736e-005  -3.2052111e-008            
2.4991669e-005  -3.0521363e-008            
2.5191603e-005  -2.9320233e-008            
2.5391536e-005  -2.7769241e-008            
2.5591469e-005  -2.6205244e-008            
2.5791403e-005  -2.4599524e-008            
2.5991336e-005  -2.3165674e-008            
2.619127e-005  -2.1790832e-008            
2.6391203e-005  -2.0105233e-008            
2.6591136e-005  -1.8266767e-008            
2.679107e-005  -1.6587603e-008            
2.6991003e-005  -1.5022129e-008            
2.7190936e-005  -1.3492142e-008            
2.739087e-005  -1.1666841e-008            
2.7590803e-005  -9.844724e-009            
2.7790736e-005  -8.3006903e-009            
2.799067e-005  -6.6526821e-009            
2.8190603e-005  -4.9246404e-009            
2.8390536e-005  -3.1661822e-009            
2.859047e-005  -1.3404672e-009            
2.8790403e-005  3.0052429e-010            
2.8990337e-005  2.3943849e-009            
2.919027e-005  4.436604e-009            
2.9390203e-005  6.1481104e-009            
2.9590137e-005  7.7879261e-009            
2.979007e-005  9.5397695e-009            
2.9990003e-005  1.142159e-008            
3.0189937e-005  1.3486422e-008            
3.038987e-005  1.5189908e-008            
3.0589803e-005  1.7099134e-008            
3.0789737e-005  1.9122841e-008            
3.098967e-005  2.1236016e-008            
3.1189603e-005  2.3323064e-008            
3.1389537e-005  2.5282322e-008            
3.158947e-005  2.7380883e-008            
3.1789404e-005  2.9568528e-008            
3.1989337e-005  3.1552896e-008            
3.218927e-005  3.3466715e-008            
3.2389204e-005  3.5448236e-008            
3.2589137e-005  3.7681025e-008            
3.278907e-005  3.979252e-008            
3.2989004e-005  4.178999e-008            
3.3188937e-005  4.3779181e-008            
3.338887e-005  4.5799012e-008            
3.3588804e-005  4.8047979e-008            
3.3788737e-005  5.0108482e-008            
3.398867e-005  5.1956227e-008            
3.4188604e-005  5.3602738e-008            
3.4388537e-005  5.54826e-008            
3.458847e-005  5.7410418e-008            
3.4788404e-005  5.93769e-008            
3.4988337e-005  6.1277815e-008            
3.5188271e-005  6.2988369e-008            
3.5388204e-005  6.4717706e-008            
3.5588137e-005  6.6597969e-008            
3.5788071e-005  6.8596853e-008            
3.5988004e-005  7.0589296e-008            
3.6187937e-005  7.2471522e-008            
3.6387871e-005  7.4586516e-008            
3.6587804e-005  7.6680401e-008            
3.6787737e-005  7.8553067e-008            
3.6987671e-005  8.0595925e-008            
3.7187604e-005  8.2500744e-008            
3.7387537e-005  8.4426431e-008            
3.7587471e-005  8.6408366e-008            
3.7787404e-005  8.7970582e-008            
3.7987338e-005  8.975299e-008            
3.8187271e-005  9.1716066e-008            
3.8387204e-005  9.3505333e-008            
3.8587138e-005  9.5210946e-008            
3.8787071e-005  9.6608878e-008            
3.8987004e-005  9.8194602e-008            
3.9186938e-005  9.9759628e-008            
3.9386871e-005  1.0133624e-007            
3.9586804e-005  1.0283479e-007            
3.9786738e-005  1.0438829e-007            
3.9986671e-005  1.0574665e-007            
4.0186604e-005  1.0731683e-007            
4.0386538e-005  1.0881263e-007            
4.0586471e-005  1.1038933e-007            
4.0786405e-005  1.1175669e-007            
4.0986338e-005  1.132498e-007            
4.1186271e-005  1.1460545e-007            
4.1386205e-005  1.1600013e-007            
4.1586138e-005  1.1735434e-007            
4.1786071e-005  1.1868732e-007            
4.1986005e-005  1.1998957e-007            
4.2185938e-005  1.2132275e-007            
4.2385871e-005  1.226876e-007            
4.2585805e-005  1.2402028e-007            
4.2785738e-005  1.2528509e-007            
4.2985671e-005  1.2638741e-007            
4.3185605e-005  1.2768476e-007            
4.3385538e-005  1.2903347e-007            
4.3585471e-005  1.3018284e-007            
4.3785405e-005  1.3150953e-007            
4.3985338e-005  1.326387e-007            
4.4185272e-005  1.3371421e-007            
4.4385205e-005  1.3491421e-007            
4.4585138e-005  1.3595213e-007            
4.4785072e-005  1.3731895e-007            
4.4985005e-005  1.3843843e-007            
4.5184938e-005  1.3955202e-007            
4.5384872e-005  1.4062575e-007            
4.5584805e-005  1.4193264e-007            
4.5784738e-005  1.434205e-007            
4.5984672e-005  1.4494826e-007            
4.6184605e-005  1.4626102e-007            
4.6384538e-005  1.4760269e-007            
4.6584472e-005  1.490906e-007            
4.6784405e-005  1.5048455e-007            
4.6984339e-005  1.5199425e-007            
4.7184272e-005  1.5354099e-007            
4.7384205e-005  1.5497803e-007            
4.7584139e-005  1.5649296e-007            
4.7784072e-005  1.579332e-007            
4.7984005e-005  1.5941325e-007            
4.8183939e-005  1.6088549e-007            
4.8383872e-005  1.6258115e-007            
4.8583805e-005  1.6398695e-007            
4.8783739e-005  1.6512829e-007            
4.8983672e-005  1.6614643e-007            
4.9183605e-005  1.6749805e-007            
4.9383539e-005  1.6889295e-007            
4.9583472e-005  1.704248e-007            
4.9783406e-005  1.7144004e-007            
4.9983339e-005  1.7271222e-007            
5.0183272e-005  1.7412819e-007            
5.0383206e-005  1.7560296e-007            
5.0583139e-005  1.7696717e-007            
5.0783072e-005  1.7807826e-007            
5.0983006e-005  1.7929264e-007            
5.1182939e-005  1.8045607e-007            
5.1382872e-005  1.8155172e-007            
5.1582806e-005  1.8264774e-007            
5.1782739e-005  1.8391636e-007            
5.1982672e-005  1.853121e-007            
5.2182606e-005  1.8657192e-007            
5.2382539e-005  1.8752668e-007            
5.2582472e-005  1.8851655e-007            
5.2782406e-005  1.8975757e-007            
5.2982339e-005  1.9099105e-007            
5.3182273e-005  1.92225e-007            
5.3382206e-005  1.9319422e-007            
5.3582139e-005  1.9413655e-007            
5.3782073e-005  1.9520887e-007            
5.3982006e-005  1.9617373e-007            
5.4181939e-005  1.9739581e-007            
5.4381873e-005  1.9853112e-007            
5.4581806e-005  1.9979669e-007            
5.4781739e-005  2.0094475e-007            
5.4981673e-005  2.0204462e-007            
5.5181606e-005  2.0313338e-007            
5.5381539e-005  2.0429276e-007            
5.5581473e-005  2.0542209e-007            
5.5781406e-005  2.0650749e-007            
5.598134e-005  2.0753562e-007            
5.6181273e-005  2.08615e-007            
5.6381206e-005  2.0989389e-007            
5.658114e-005  2.1092234e-007            
5.6781073e-005  2.1187883e-007            
5.6981006e-005  2.1268557e-007            
5.718094e-005  2.1345565e-007            
5.7380873e-005  2.1439512e-007            
5.7580806e-005  2.1524341e-007            
5.778074e-005  2.1613511e-007            
5.7980673e-005  2.1706609e-007            
5.8180606e-005  2.1792476e-007            
5.838054e-005  2.1890042e-007            
5.8580473e-005  2.1976817e-007            
5.8780407e-005  2.2057099e-007            
5.898034e-005  2.2147277e-007            
5.9180273e-005  2.2223556e-007            
5.9380207e-005  2.2307415e-007            
5.958014e-005  2.2395674e-007            
5.9780073e-005  2.2482351e-007            
5.9980007e-005  2.2581286e-007            
6.017994e-005  2.2678796e-007            
6.0379873e-005  2.2758532e-007            
6.0579807e-005  2.282406e-007            
6.077974e-005  2.2892789e-007            
6.0979673e-005  2.2995468e-007            
6.1179607e-005  2.310249e-007            
6.137954e-005  2.318614e-007            
6.1579473e-005  2.3281788e-007            
6.1779407e-005  2.338872e-007            
6.197934e-005  2.3490092e-007            
6.2179274e-005  2.3602892e-007            
6.2379207e-005  2.3715865e-007            
6.257914e-005  2.3825142e-007            
6.2779074e-005  2.3944279e-007            
6.2979007e-005  2.4032277e-007            
6.317894e-005  2.4150701e-007            
6.3378874e-005  2.4258441e-007            
6.3578807e-005  2.4376776e-007            
6.377874e-005  2.448308e-007            
6.3978674e-005  2.4597973e-007            
6.4178607e-005  2.4725506e-007            
6.437854e-005  2.4849595e-007            
6.4578474e-005  2.4976552e-007            
6.4778407e-005  2.5097488e-007            
6.4978341e-005  2.5230819e-007            
6.5178274e-005  2.5349656e-007            
6.5378207e-005  2.5459239e-007            
6.5578141e-005  2.5565095e-007            
6.5778074e-005  2.5687728e-007            
6.5978007e-005  2.5819153e-007            
6.6177941e-005  2.5947897e-007            
6.6377874e-005  2.6070776e-007            
6.6577807e-005  2.6187611e-007            
6.6777741e-005  2.6311689e-007            
6.6977674e-005  2.6423969e-007            
6.7177607e-005  2.6528321e-007            
6.7377541e-005  2.6624261e-007            
6.7577474e-005  2.6731047e-007            
6.7777407e-005  2.6847901e-007            
6.7977341e-005  2.6939591e-007            
6.8177274e-005  2.7020224e-007            
6.8377208e-005  2.7110702e-007            
6.8577141e-005  2.7198857e-007            
6.8777074e-005  2.729401e-007            
6.8977008e-005  2.7397221e-007            
6.9176941e-005  2.7479413e-007            
6.9376874e-005  2.7553818e-007            
6.9576808e-005  2.7628963e-007            
6.9776741e-005  2.7717784e-007            
6.9976674e-005  2.7809406e-007            
7.0176608e-005  2.7890739e-007            
7.0376541e-005  2.7961579e-007            
7.0576474e-005  2.8039577e-007            
7.0776408e-005  2.8106197e-007            
7.0976341e-005  2.8167709e-007            
7.1176275e-005  2.8246207e-007            
7.1376208e-005  2.8298704e-007            
7.1576141e-005  2.8362509e-007            
7.1776075e-005  2.8402193e-007            
7.1976008e-005  2.8437505e-007            
7.2175941e-005  2.8508932e-007            
7.2375875e-005  2.8564238e-007            
7.2575808e-005  2.8592596e-007            
7.2775741e-005  2.8623091e-007            
7.2975675e-005  2.8649819e-007            
7.3175608e-005  2.8709163e-007            
7.3375541e-005  2.8758828e-007            
7.3575475e-005  2.8787735e-007            
7.3775408e-005  2.8811941e-007            
7.3975342e-005  2.884379e-007            
7.4175275e-005  2.8868338e-007            
7.4375208e-005  2.8881227e-007            
7.4575142e-005  2.8911006e-007            
7.4775075e-005  2.8948033e-007            
7.4975008e-005  2.8974304e-007            
7.5174942e-005  2.8975512e-007            
7.5374875e-005  2.897173e-007            
7.5574808e-005  2.8978238e-007            
7.5774742e-005  2.9028228e-007            
7.5974675e-005  2.905461e-007            
7.6174608e-005  2.9051355e-007            
7.6374542e-005  2.9024384e-007            
7.6574475e-005  2.8992996e-007            
7.6774408e-005  2.900144e-007            
7.6974342e-005  2.8989052e-007            
7.7174275e-005  2.8970881e-007            
7.7374209e-005  2.8940948e-007            
7.7574142e-005  2.8919066e-007            
7.7774075e-005  2.8905248e-007            
7.7974009e-005  2.8883423e-007            
7.8173942e-005  2.8847992e-007            
7.8373875e-005  2.8841591e-007            
7.8573809e-005  2.8831161e-007            
7.8773742e-005  2.8780731e-007            
7.8973675e-005  2.8743405e-007            
7.9173609e-005  2.8717766e-007            
7.9373542e-005  2.8696115e-007            
7.9573475e-005  2.8685014e-007            
7.9773409e-005  2.864183e-007            
7.9973342e-005  2.8590706e-007            
8.0173276e-005  2.8561157e-007            
8.0373209e-005  2.8520047e-007            
8.0573142e-005  2.8495967e-007            
8.0773076e-005  2.8467305e-007            
8.0973009e-005  2.8431737e-007            
8.1172942e-005  2.8397484e-007            
8.1372876e-005  2.835891e-007            
8.1572809e-005  2.8343742e-007            
8.1772742e-005  2.8319679e-007            
8.1972676e-005  2.8295681e-007            
8.2172609e-005  2.8266267e-007            
8.2372542e-005  2.8215114e-007            
8.2572476e-005  2.8188728e-007            
8.2772409e-005  2.8159694e-007            
8.2972343e-005  2.8153894e-007            
8.3172276e-005  2.8145359e-007            
8.3372209e-005  2.8107725e-007            
8.3572143e-005  2.8091469e-007            
8.3772076e-005  2.807469e-007            
8.3972009e-005  2.806662e-007            
8.4171943e-005  2.8062174e-007            
8.4371876e-005  2.8049507e-007            
8.4571809e-005  2.8030774e-007            
8.4771743e-005  2.8029014e-007            
8.4971676e-005  2.801258e-007            
8.5171609e-005  2.7999676e-007            
8.5371543e-005  2.7972872e-007            
8.5571476e-005  2.7967521e-007            
8.5771409e-005  2.7939336e-007            
8.5971343e-005  2.7922985e-007            
8.6171276e-005  2.7891234e-007            
8.637121e-005  2.7881951e-007            
8.6571143e-005  2.7865421e-007            
8.6771076e-005  2.7830691e-007            
8.697101e-005  2.7787776e-007            
8.7170943e-005  2.7737798e-007            
8.7370876e-005  2.7699668e-007            
8.757081e-005  2.7670078e-007            
8.7770743e-005  2.762529e-007            
8.7970676e-005  2.7581603e-007            
8.817061e-005  2.75267e-007            
8.8370543e-005  2.7480773e-007            
8.8570476e-005  2.7426015e-007            
8.877041e-005  2.7369482e-007            
8.8970343e-005  2.7317713e-007            
8.9170277e-005  2.7260852e-007            
8.937021e-005  2.7220028e-007            
8.9570143e-005  2.7156283e-007            
8.9770077e-005  2.7100714e-007            
8.997001e-005  2.7044001e-007            
9.0169943e-005  2.6969066e-007            
9.0369877e-005  2.6909882e-007            
9.056981e-005  2.6834388e-007            
9.0769743e-005  2.6749222e-007            
9.0969677e-005  2.6684447e-007            
9.116961e-005  2.6615526e-007            
9.1369543e-005  2.6541912e-007            
9.1569477e-005  2.6471512e-007            
9.176941e-005  2.6378006e-007            
9.1969344e-005  2.6304249e-007            
9.2169277e-005  2.6229326e-007            
