Surface Profile             
x       y           
[m]     [m]         
0  -3.3743785e-009            
1.9993336e-007  -5.1293635e-009            
3.9986671e-007  -6.7715082e-009            
5.9980007e-007  -7.7650921e-009            
7.9973342e-007  -9.1525292e-009            
9.9966678e-007  -1.0139706e-008            
1.1996001e-006  -1.0784833e-008            
1.3995335e-006  -1.1779857e-008            
1.5994668e-006  -1.3021026e-008            
1.7994002e-006  -1.4548089e-008            
1.9993336e-006  -1.6086431e-008            
2.1992669e-006  -1.7192714e-008            
2.3992003e-006  -1.840246e-008            
2.5991336e-006  -1.9914603e-008            
2.799067e-006  -2.1603826e-008            
2.9990003e-006  -2.3211308e-008            
3.1989337e-006  -2.4735085e-008            
3.398867e-006  -2.6397134e-008            
3.5988004e-006  -2.8031618e-008            
3.7987338e-006  -2.9711014e-008            
3.9986671e-006  -3.1358432e-008            
4.1986005e-006  -3.3230275e-008            
4.3985338e-006  -3.5156175e-008            
4.5984672e-006  -3.7144688e-008            
4.7984005e-006  -3.8581593e-008            
4.9983339e-006  -4.0247377e-008            
5.1982672e-006  -4.228608e-008            
5.3982006e-006  -4.4304845e-008            
5.598134e-006  -4.6030196e-008            
5.7980673e-006  -4.7724297e-008            
5.9980007e-006  -4.9264529e-008            
6.197934e-006  -5.1182429e-008            
6.3978674e-006  -5.3211624e-008            
6.5978007e-006  -5.5180872e-008            
6.7977341e-006  -5.7056143e-008            
6.9976674e-006  -5.8649248e-008            
7.1976008e-006  -6.0394504e-008            
7.3975342e-006  -6.2410197e-008            
7.5974675e-006  -6.4355007e-008            
7.7974009e-006  -6.6500557e-008            
7.9973342e-006  -6.8501792e-008            
8.1972676e-006  -7.0531916e-008            
8.3972009e-006  -7.2388374e-008            
8.5971343e-006  -7.4386445e-008            
8.7970676e-006  -7.6554615e-008            
8.997001e-006  -7.8836689e-008            
9.1969344e-006  -8.0969798e-008            
9.3968677e-006  -8.2756396e-008            
9.5968011e-006  -8.4530813e-008            
9.7967344e-006  -8.6578083e-008            
9.9966678e-006  -8.8548161e-008            
1.0196601e-005  -9.0588885e-008            
1.0396534e-005  -9.244414e-008            
1.0596468e-005  -9.4159867e-008            
1.0796401e-005  -9.5816658e-008            
1.0996335e-005  -9.7504768e-008            
1.1196268e-005  -9.9214491e-008            
1.1396201e-005  -1.011852e-007            
1.1596135e-005  -1.0290774e-007            
1.1796068e-005  -1.0459876e-007            
1.1996001e-005  -1.0618607e-007            
1.2195935e-005  -1.0771111e-007            
1.2395868e-005  -1.094034e-007            
1.2595801e-005  -1.11289e-007            
1.2795735e-005  -1.1286096e-007            
1.2995668e-005  -1.1443619e-007            
1.3195601e-005  -1.1584519e-007            
1.3395535e-005  -1.1733731e-007            
1.3595468e-005  -1.1904968e-007            
1.3795402e-005  -1.2056133e-007            
1.3995335e-005  -1.2224003e-007            
1.4195268e-005  -1.2381359e-007            
1.4395202e-005  -1.2532446e-007            
1.4595135e-005  -1.2686272e-007            
1.4795068e-005  -1.2829722e-007            
1.4995002e-005  -1.2987994e-007            
1.5194935e-005  -1.3151023e-007            
1.5394868e-005  -1.3311707e-007            
1.5594802e-005  -1.344241e-007            
1.5794735e-005  -1.3575051e-007            
1.5994668e-005  -1.3708982e-007            
1.6194602e-005  -1.3860494e-007            
1.6394535e-005  -1.4019856e-007            
1.6594469e-005  -1.4166581e-007            
1.6794402e-005  -1.4299875e-007            
1.6994335e-005  -1.443101e-007            
1.7194269e-005  -1.4560017e-007            
1.7394202e-005  -1.4694322e-007            
1.7594135e-005  -1.4810053e-007            
1.7794069e-005  -1.494731e-007            
1.7994002e-005  -1.5077113e-007            
1.8193935e-005  -1.5219929e-007            
1.8393869e-005  -1.5332421e-007            
1.8593802e-005  -1.5474161e-007            
1.8793735e-005  -1.5626965e-007            
1.8993669e-005  -1.5765431e-007            
1.9193602e-005  -1.5890008e-007            
1.9393535e-005  -1.6014466e-007            
1.9593469e-005  -1.6124889e-007            
1.9793402e-005  -1.6270202e-007            
1.9993336e-005  -1.6424351e-007            
2.0193269e-005  -1.6543446e-007            
2.0393202e-005  -1.6661683e-007            
2.0593136e-005  -1.6745582e-007            
2.0793069e-005  -1.6858635e-007            
2.0993002e-005  -1.6977692e-007            
2.1192936e-005  -1.7108827e-007            
2.1392869e-005  -1.723404e-007            
2.1592802e-005  -1.73244e-007            
2.1792736e-005  -1.7416808e-007            
2.1992669e-005  -1.7516846e-007            
2.2192602e-005  -1.7630674e-007            
2.2392536e-005  -1.7750309e-007            
2.2592469e-005  -1.7874795e-007            
2.2792403e-005  -1.7950932e-007            
2.2992336e-005  -1.804167e-007            
2.3192269e-005  -1.8127641e-007            
2.3392203e-005  -1.8248396e-007            
2.3592136e-005  -1.8361952e-007            
2.3792069e-005  -1.8456494e-007            
2.3992003e-005  -1.8550323e-007            
2.4191936e-005  -1.8629453e-007            
2.4391869e-005  -1.8740031e-007            
2.4591803e-005  -1.8833258e-007            
2.4791736e-005  -1.8933655e-007            
2.4991669e-005  -1.903343e-007            
2.5191603e-005  -1.9123563e-007            
2.5391536e-005  -1.9208626e-007            
2.5591469e-005  -1.9300064e-007            
2.5791403e-005  -1.9408484e-007            
2.5991336e-005  -1.9543768e-007            
2.619127e-005  -1.9654414e-007            
2.6391203e-005  -1.9742386e-007            
2.6591136e-005  -1.9831986e-007            
2.679107e-005  -1.9954167e-007            
2.6991003e-005  -2.0064211e-007            
2.7190936e-005  -2.0198722e-007            
2.739087e-005  -2.0291261e-007            
2.7590803e-005  -2.0395263e-007            
2.7790736e-005  -2.0500813e-007            
2.799067e-005  -2.0622602e-007            
2.8190603e-005  -2.073431e-007            
2.8390536e-005  -2.0852316e-007            
2.859047e-005  -2.0965222e-007            
2.8790403e-005  -2.1065461e-007            
2.8990337e-005  -2.1167362e-007            
2.919027e-005  -2.1275855e-007            
2.9390203e-005  -2.1402629e-007            
2.9590137e-005  -2.1518885e-007            
2.979007e-005  -2.1635197e-007            
2.9990003e-005  -2.1721006e-007            
3.0189937e-005  -2.1825161e-007            
3.038987e-005  -2.1934104e-007            
3.0589803e-005  -2.2034846e-007            
3.0789737e-005  -2.214049e-007            
3.098967e-005  -2.2214813e-007            
3.1189603e-005  -2.2290661e-007            
3.1389537e-005  -2.2385554e-007            
3.158947e-005  -2.2469772e-007            
3.1789404e-005  -2.2559016e-007            
3.1989337e-005  -2.2656398e-007            
3.218927e-005  -2.2723041e-007            
3.2389204e-005  -2.2786e-007            
3.2589137e-005  -2.2865247e-007            
3.278907e-005  -2.2957297e-007            
3.2989004e-005  -2.3074584e-007            
3.3188937e-005  -2.3139924e-007            
3.338887e-005  -2.3210138e-007            
3.3588804e-005  -2.3291496e-007            
3.3788737e-005  -2.3383539e-007            
3.398867e-005  -2.346842e-007            
3.4188604e-005  -2.3549765e-007            
3.4388537e-005  -2.3625491e-007            
3.458847e-005  -2.369995e-007            
3.4788404e-005  -2.3757692e-007            
3.4988337e-005  -2.3815146e-007            
3.5188271e-005  -2.3887852e-007            
3.5388204e-005  -2.3957594e-007            
3.5588137e-005  -2.4043699e-007            
3.5788071e-005  -2.4100394e-007            
3.5988004e-005  -2.4170519e-007            
3.6187937e-005  -2.4234652e-007            
3.6387871e-005  -2.4305002e-007            
3.6587804e-005  -2.4385958e-007            
3.6787737e-005  -2.4457053e-007            
3.6987671e-005  -2.4515646e-007            
3.7187604e-005  -2.4584429e-007            
3.7387537e-005  -2.4656429e-007            
3.7587471e-005  -2.4733103e-007            
3.7787404e-005  -2.4808413e-007            
3.7987338e-005  -2.4880907e-007            
3.8187271e-005  -2.496838e-007            
3.8387204e-005  -2.5043837e-007            
3.8587138e-005  -2.5105826e-007            
3.8787071e-005  -2.5172184e-007            
3.8987004e-005  -2.5233202e-007            
3.9186938e-005  -2.5310502e-007            
3.9386871e-005  -2.537919e-007            
3.9586804e-005  -2.5435778e-007            
3.9786738e-005  -2.5501869e-007            
3.9986671e-005  -2.5574334e-007            
4.0186604e-005  -2.5650318e-007            
4.0386538e-005  -2.5710196e-007            
4.0586471e-005  -2.5775902e-007            
4.0786405e-005  -2.5853087e-007            
4.0986338e-005  -2.5932696e-007            
4.1186271e-005  -2.5981528e-007            
4.1386205e-005  -2.6047817e-007            
4.1586138e-005  -2.6121623e-007            
4.1786071e-005  -2.6202903e-007            
4.1986005e-005  -2.6281947e-007            
4.2185938e-005  -2.6322259e-007            
4.2385871e-005  -2.6378401e-007            
4.2585805e-005  -2.6458496e-007            
4.2785738e-005  -2.6546871e-007            
4.2985671e-005  -2.6611795e-007            
4.3185605e-005  -2.6662729e-007            
4.3385538e-005  -2.6731989e-007            
4.3585471e-005  -2.6793418e-007            
4.3785405e-005  -2.6862143e-007            
4.3985338e-005  -2.692002e-007            
4.4185272e-005  -2.6966801e-007            
4.4385205e-005  -2.7012314e-007            
4.4585138e-005  -2.7057119e-007            
4.4785072e-005  -2.7082591e-007            
4.4985005e-005  -2.71343e-007            
4.5184938e-005  -2.7202815e-007            
4.5384872e-005  -2.7260497e-007            
4.5584805e-005  -2.7291962e-007            
4.5784738e-005  -2.7314348e-007            
4.5984672e-005  -2.7372974e-007            
4.6184605e-005  -2.745232e-007            
4.6384538e-005  -2.7509873e-007            
4.6584472e-005  -2.7548936e-007            
4.6784405e-005  -2.7575744e-007            
4.6984339e-005  -2.7641822e-007            
4.7184272e-005  -2.7709769e-007            
4.7384205e-005  -2.7767998e-007            
4.7584139e-005  -2.783432e-007            
4.7784072e-005  -2.7898603e-007            
4.7984005e-005  -2.7973554e-007            
4.8183939e-005  -2.8029165e-007            
4.8383872e-005  -2.8077481e-007            
4.8583805e-005  -2.8145977e-007            
4.8783739e-005  -2.8233927e-007            
4.8983672e-005  -2.8296617e-007            
4.9183605e-005  -2.8327364e-007            
4.9383539e-005  -2.8359491e-007            
4.9583472e-005  -2.8421451e-007            
4.9783406e-005  -2.8510658e-007            
4.9983339e-005  -2.8594566e-007            
5.0183272e-005  -2.8663114e-007            
5.0383206e-005  -2.8715918e-007            
5.0583139e-005  -2.8779324e-007            
5.0783072e-005  -2.884723e-007            
5.0983006e-005  -2.8916972e-007            
5.1182939e-005  -2.8986705e-007            
5.1382872e-005  -2.9068875e-007            
5.1582806e-005  -2.9138444e-007            
5.1782739e-005  -2.9204456e-007            
5.1982672e-005  -2.9265714e-007            
5.2182606e-005  -2.9359808e-007            
5.2382539e-005  -2.9461078e-007            
5.2582472e-005  -2.9544507e-007            
5.2782406e-005  -2.9621373e-007            
5.2982339e-005  -2.9691136e-007            
5.3182273e-005  -2.9761065e-007            
5.3382206e-005  -2.9848199e-007            
5.3582139e-005  -2.9927815e-007            
5.3782073e-005  -3.0006669e-007            
5.3982006e-005  -3.0085862e-007            
5.4181939e-005  -3.0170454e-007            
5.4381873e-005  -3.0237721e-007            
5.4581806e-005  -3.0331573e-007            
5.4781739e-005  -3.0415336e-007            
5.4981673e-005  -3.0497473e-007            
5.5181606e-005  -3.0537464e-007            
5.5381539e-005  -3.0590949e-007            
5.5581473e-005  -3.0678555e-007            
5.5781406e-005  -3.0760538e-007            
5.598134e-005  -3.0829303e-007            
5.6181273e-005  -3.0883675e-007            
5.6381206e-005  -3.093649e-007            
5.658114e-005  -3.1012468e-007            
5.6781073e-005  -3.1080016e-007            
5.6981006e-005  -3.112618e-007            
5.718094e-005  -3.1177268e-007            
5.7380873e-005  -3.1227369e-007            
5.7580806e-005  -3.1266168e-007            
5.778074e-005  -3.1308881e-007            
5.7980673e-005  -3.1343839e-007            
5.8180606e-005  -3.139044e-007            
5.838054e-005  -3.1429522e-007            
5.8580473e-005  -3.1477505e-007            
5.8780407e-005  -3.1505243e-007            
5.898034e-005  -3.1523699e-007            
5.9180273e-005  -3.1556352e-007            
5.9380207e-005  -3.1576274e-007            
5.958014e-005  -3.160756e-007            
5.9780073e-005  -3.1617123e-007            
5.9980007e-005  -3.1635401e-007            
6.017994e-005  -3.1662658e-007            
6.0379873e-005  -3.1679085e-007            
6.0579807e-005  -3.1702848e-007            
6.077974e-005  -3.1733276e-007            
6.0979673e-005  -3.1755802e-007            
6.1179607e-005  -3.1771679e-007            
6.137954e-005  -3.1801063e-007            
6.1579473e-005  -3.1802432e-007            
6.1779407e-005  -3.1836339e-007            
6.197934e-005  -3.1840856e-007            
6.2179274e-005  -3.1870069e-007            
6.2379207e-005  -3.1891306e-007            
6.257914e-005  -3.1909939e-007            
6.2779074e-005  -3.1914486e-007            
6.2979007e-005  -3.1933174e-007            
6.317894e-005  -3.1957066e-007            
6.3378874e-005  -3.1979965e-007            
6.3578807e-005  -3.1991036e-007            
6.377874e-005  -3.1981525e-007            
6.3978674e-005  -3.1978105e-007            
6.4178607e-005  -3.1963807e-007            
6.437854e-005  -3.1961696e-007            
6.4578474e-005  -3.1966667e-007            
6.4778407e-005  -3.1947135e-007            
6.4978341e-005  -3.192105e-007            
6.5178274e-005  -3.1875491e-007            
6.5378207e-005  -3.1849849e-007            
6.5578141e-005  -3.1840576e-007            
6.5778074e-005  -3.180762e-007            
6.5978007e-005  -3.1780747e-007            
6.6177941e-005  -3.1746086e-007            
6.6377874e-005  -3.1700289e-007            
6.6577807e-005  -3.1655634e-007            
6.6777741e-005  -3.1597506e-007            
6.6977674e-005  -3.1534569e-007            
6.7177607e-005  -3.1489527e-007            
6.7377541e-005  -3.1423096e-007            
6.7577474e-005  -3.1351751e-007            
6.7777407e-005  -3.1269717e-007            
6.7977341e-005  -3.1205742e-007            
6.8177274e-005  -3.1166312e-007            
6.8377208e-005  -3.108609e-007            
6.8577141e-005  -3.0996077e-007            
6.8777074e-005  -3.0879285e-007            
6.8977008e-005  -3.0798837e-007            
6.9176941e-005  -3.0736689e-007            
6.9376874e-005  -3.0656611e-007            
6.9576808e-005  -3.0553475e-007            
6.9776741e-005  -3.0449541e-007            
6.9976674e-005  -3.0356871e-007            
7.0176608e-005  -3.0269593e-007            
7.0376541e-005  -3.0159164e-007            
7.0576474e-005  -3.0033114e-007            
7.0776408e-005  -2.9904465e-007            
7.0976341e-005  -2.9756543e-007            
7.1176275e-005  -2.9619488e-007            
7.1376208e-005  -2.9472396e-007            
7.1576141e-005  -2.9323878e-007            
7.1776075e-005  -2.9175834e-007            
7.1976008e-005  -2.8999566e-007            
7.2175941e-005  -2.8834563e-007            
7.2375875e-005  -2.8659839e-007            
7.2575808e-005  -2.8495118e-007            
7.2775741e-005  -2.834307e-007            
7.2975675e-005  -2.8171788e-007            
7.3175608e-005  -2.7983099e-007            
7.3375541e-005  -2.7809627e-007            
7.3575475e-005  -2.7629944e-007            
7.3775408e-005  -2.7457063e-007            
7.3975342e-005  -2.7283849e-007            
7.4175275e-005  -2.7092451e-007            
7.4375208e-005  -2.6917017e-007            
7.4575142e-005  -2.6726619e-007            
7.4775075e-005  -2.6535009e-007            
7.4975008e-005  -2.6341396e-007            
7.5174942e-005  -2.6169112e-007            
7.5374875e-005  -2.5995362e-007            
7.5574808e-005  -2.5793744e-007            
7.5774742e-005  -2.5572681e-007            
7.5974675e-005  -2.536176e-007            
7.6174608e-005  -2.5168022e-007            
7.6374542e-005  -2.4969767e-007            
7.6574475e-005  -2.4759043e-007            
7.6774408e-005  -2.4526038e-007            
7.6974342e-005  -2.4298489e-007            
7.7174275e-005  -2.4075087e-007            
7.7374209e-005  -2.3826674e-007            
7.7574142e-005  -2.3587994e-007            
7.7774075e-005  -2.3355474e-007            
7.7974009e-005  -2.3136745e-007            
7.8173942e-005  -2.2909207e-007            
7.8373875e-005  -2.2655448e-007            
7.8573809e-005  -2.240972e-007            
7.8773742e-005  -2.2167256e-007            
7.8973675e-005  -2.1937893e-007            
7.9173609e-005  -2.1705582e-007            
7.9373542e-005  -2.1464457e-007            
7.9573475e-005  -2.1208694e-007            
7.9773409e-005  -2.0971502e-007            
7.9973342e-005  -2.073876e-007            
8.0173276e-005  -2.0501946e-007            
8.0373209e-005  -2.0234922e-007            
8.0573142e-005  -1.9965005e-007            
8.0773076e-005  -1.9713468e-007            
8.0973009e-005  -1.943853e-007            
8.1172942e-005  -1.9190799e-007            
8.1372876e-005  -1.8926411e-007            
8.1572809e-005  -1.8654494e-007            
8.1772742e-005  -1.8398313e-007            
8.1972676e-005  -1.8126359e-007            
8.2172609e-005  -1.7852816e-007            
8.2372542e-005  -1.7576584e-007            
8.2572476e-005  -1.7305901e-007            
8.2772409e-005  -1.7032047e-007            
8.2972343e-005  -1.6747265e-007            
8.3172276e-005  -1.6454486e-007            
8.3372209e-005  -1.6192042e-007            
8.3572143e-005  -1.592514e-007            
8.3772076e-005  -1.5676745e-007            
8.3972009e-005  -1.5411812e-007            
8.4171943e-005  -1.5140935e-007            
8.4371876e-005  -1.4876938e-007            
8.4571809e-005  -1.4594376e-007            
8.4771743e-005  -1.4331498e-007            
8.4971676e-005  -1.4062329e-007            
8.5171609e-005  -1.3800051e-007            
8.5371543e-005  -1.3540728e-007            
8.5571476e-005  -1.3247327e-007            
8.5771409e-005  -1.2953056e-007            
8.5971343e-005  -1.2668973e-007            
8.6171276e-005  -1.2397942e-007            
8.637121e-005  -1.2114615e-007            
8.6571143e-005  -1.18184e-007            
8.6771076e-005  -1.1510708e-007            
8.697101e-005  -1.1234504e-007            
8.7170943e-005  -1.0956802e-007            
8.7370876e-005  -1.0684071e-007            
8.757081e-005  -1.0393321e-007            
8.7770743e-005  -1.0094016e-007            
8.7970676e-005  -9.8214416e-008            
8.817061e-005  -9.5340587e-008            
8.8370543e-005  -9.2355014e-008            
8.8570476e-005  -8.9691317e-008            
8.877041e-005  -8.7005151e-008            
8.8970343e-005  -8.4237247e-008            
8.9170277e-005  -8.1403316e-008            
8.937021e-005  -7.838273e-008            
8.9570143e-005  -7.5708851e-008            
8.9770077e-005  -7.3207915e-008            
8.997001e-005  -7.0565603e-008            
9.0169943e-005  -6.7811958e-008            
9.0369877e-005  -6.4642987e-008            
9.056981e-005  -6.1591232e-008            
9.0769743e-005  -5.8697797e-008            
