Surface Profile             
x       y           
[m]     [m]         
0  7.6869978e-009            
1.9993336e-007  1.0600611e-008            
3.9986671e-007  1.2899431e-008            
5.9980007e-007  1.4746906e-008            
7.9973342e-007  1.6353765e-008            
9.9966678e-007  1.7885505e-008            
1.1996001e-006  1.9483892e-008            
1.3995335e-006  2.0853873e-008            
1.5994668e-006  2.2618391e-008            
1.7994002e-006  2.4360875e-008            
1.9993336e-006  2.6269217e-008            
2.1992669e-006  2.8331154e-008            
2.3992003e-006  3.0195219e-008            
2.5991336e-006  3.2196327e-008            
2.799067e-006  3.4194999e-008            
2.9990003e-006  3.5997363e-008            
3.1989337e-006  3.7932239e-008            
3.398867e-006  4.0015802e-008            
3.5988004e-006  4.2121304e-008            
3.7987338e-006  4.4101676e-008            
3.9986671e-006  4.6024129e-008            
4.1986005e-006  4.7844004e-008            
4.3985338e-006  4.9643279e-008            
4.5984672e-006  5.1620372e-008            
4.7984005e-006  5.3603367e-008            
4.9983339e-006  5.558751e-008            
5.1982672e-006  5.745341e-008            
5.3982006e-006  5.9061351e-008            
5.598134e-006  6.0585629e-008            
5.7980673e-006  6.2317321e-008            
5.9980007e-006  6.4028095e-008            
6.197934e-006  6.5786375e-008            
6.3978674e-006  6.7312221e-008            
6.5978007e-006  6.8637729e-008            
6.7977341e-006  6.993294e-008            
6.9976674e-006  7.1400747e-008            
7.1976008e-006  7.277589e-008            
7.3975342e-006  7.4127769e-008            
7.5974675e-006  7.5379527e-008            
7.7974009e-006  7.6608649e-008            
7.9973342e-006  7.7969119e-008            
8.1972676e-006  7.9318406e-008            
8.3972009e-006  8.0840064e-008            
8.5971343e-006  8.2159117e-008            
8.7970676e-006  8.3433454e-008            
8.997001e-006  8.475763e-008            
9.1969344e-006  8.5895302e-008            
9.3968677e-006  8.7655309e-008            
9.5968011e-006  8.9295679e-008            
9.7967344e-006  9.0978378e-008            
9.9966678e-006  9.2486865e-008            
1.0196601e-005  9.3777079e-008            
1.0396534e-005  9.5296188e-008            
1.0596468e-005  9.6973459e-008            
1.0796401e-005  9.8607802e-008            
1.0996335e-005  1.0019109e-007            
1.1196268e-005  1.0160856e-007            
1.1396201e-005  1.0280368e-007            
1.1596135e-005  1.0419142e-007            
1.1796068e-005  1.0567973e-007            
1.1996001e-005  1.0734307e-007            
1.2195935e-005  1.0888994e-007            
1.2395868e-005  1.1025283e-007            
1.2595801e-005  1.1151861e-007            
1.2795735e-005  1.1280005e-007            
1.2995668e-005  1.1423776e-007            
1.3195601e-005  1.1586797e-007            
1.3395535e-005  1.1742984e-007            
1.3595468e-005  1.1899697e-007            
1.3795402e-005  1.2038522e-007            
1.3995335e-005  1.2176948e-007            
1.4195268e-005  1.2343905e-007            
1.4395202e-005  1.2522309e-007            
1.4595135e-005  1.2677757e-007            
1.4795068e-005  1.2842348e-007            
1.4995002e-005  1.2996729e-007            
1.5194935e-005  1.3168798e-007            
1.5394868e-005  1.3327992e-007            
1.5594802e-005  1.3484361e-007            
1.5794735e-005  1.363658e-007            
1.5994668e-005  1.3801748e-007            
1.6194602e-005  1.3956298e-007            
1.6394535e-005  1.4106231e-007            
1.6594469e-005  1.4247969e-007            
1.6794402e-005  1.4405677e-007            
1.6994335e-005  1.455513e-007            
1.7194269e-005  1.4689505e-007            
1.7394202e-005  1.4812865e-007            
1.7594135e-005  1.4951577e-007            
1.7794069e-005  1.5112975e-007            
1.7994002e-005  1.5254023e-007            
1.8193935e-005  1.5399327e-007            
1.8393869e-005  1.5530123e-007            
1.8593802e-005  1.5646988e-007            
1.8793735e-005  1.578323e-007            
1.8993669e-005  1.5905702e-007            
1.9193602e-005  1.6041739e-007            
1.9393535e-005  1.6201688e-007            
1.9593469e-005  1.6329278e-007            
1.9793402e-005  1.6459263e-007            
1.9993336e-005  1.6566502e-007            
2.0193269e-005  1.6672713e-007            
2.0393202e-005  1.678172e-007            
2.0593136e-005  1.6902164e-007            
2.0793069e-005  1.7015489e-007            
2.0993002e-005  1.7133487e-007            
2.1192936e-005  1.722225e-007            
2.1392869e-005  1.7316737e-007            
2.1592802e-005  1.7400825e-007            
2.1792736e-005  1.7487553e-007            
2.1992669e-005  1.7562098e-007            
2.2192602e-005  1.7636865e-007            
2.2392536e-005  1.7717657e-007            
2.2592469e-005  1.7807821e-007            
2.2792403e-005  1.7882438e-007            
2.2992336e-005  1.7947375e-007            
2.3192269e-005  1.8014538e-007            
2.3392203e-005  1.8083115e-007            
2.3592136e-005  1.8145911e-007            
2.3792069e-005  1.8200611e-007            
2.3992003e-005  1.8261409e-007            
2.4191936e-005  1.8327473e-007            
2.4391869e-005  1.838404e-007            
2.4591803e-005  1.8431079e-007            
2.4791736e-005  1.8473063e-007            
2.4991669e-005  1.8526013e-007            
2.5191603e-005  1.8571269e-007            
2.5391536e-005  1.860241e-007            
2.5591469e-005  1.8630678e-007            
2.5791403e-005  1.8669157e-007            
2.5991336e-005  1.8686273e-007            
2.619127e-005  1.8703922e-007            
2.6391203e-005  1.870784e-007            
2.6591136e-005  1.8724444e-007            
2.679107e-005  1.8768577e-007            
2.6991003e-005  1.8783634e-007            
2.7190936e-005  1.8800738e-007            
2.739087e-005  1.8818212e-007            
2.7590803e-005  1.8831033e-007            
2.7790736e-005  1.8867613e-007            
2.799067e-005  1.8880107e-007            
2.8190603e-005  1.8888392e-007            
2.8390536e-005  1.8893563e-007            
2.859047e-005  1.8918276e-007            
2.8790403e-005  1.8928195e-007            
2.8990337e-005  1.8936646e-007            
2.919027e-005  1.8952028e-007            
2.9390203e-005  1.8946437e-007            
2.9590137e-005  1.895498e-007            
2.979007e-005  1.8958213e-007            
2.9990003e-005  1.8986596e-007            
3.0189937e-005  1.9017741e-007            
3.038987e-005  1.9040742e-007            
3.0589803e-005  1.9057859e-007            
3.0789737e-005  1.9077123e-007            
3.098967e-005  1.9094768e-007            
3.1189603e-005  1.9121061e-007            
3.1389537e-005  1.9161113e-007            
3.158947e-005  1.9189822e-007            
3.1789404e-005  1.9209853e-007            
3.1989337e-005  1.9211654e-007            
3.218927e-005  1.9235364e-007            
3.2389204e-005  1.9262217e-007            
3.2589137e-005  1.9300493e-007            
3.278907e-005  1.9315547e-007            
3.2989004e-005  1.9336348e-007            
3.3188937e-005  1.9357825e-007            
3.338887e-005  1.9395859e-007            
3.3588804e-005  1.943052e-007            
3.3788737e-005  1.9459131e-007            
3.398867e-005  1.9494657e-007            
3.4188604e-005  1.9531253e-007            
3.4388537e-005  1.9540323e-007            
3.458847e-005  1.9583855e-007            
3.4788404e-005  1.9625459e-007            
3.4988337e-005  1.9673959e-007            
3.5188271e-005  1.9701422e-007            
3.5388204e-005  1.973045e-007            
3.5588137e-005  1.9746479e-007            
3.5788071e-005  1.9769662e-007            
3.5988004e-005  1.9781351e-007            
3.6187937e-005  1.9803116e-007            
3.6387871e-005  1.9833634e-007            
3.6587804e-005  1.9858416e-007            
3.6787737e-005  1.9874464e-007            
3.6987671e-005  1.988112e-007            
3.7187604e-005  1.9889403e-007            
3.7387537e-005  1.9918896e-007            
3.7587471e-005  1.9929747e-007            
3.7787404e-005  1.9920346e-007            
3.7987338e-005  1.9924868e-007            
3.8187271e-005  1.9932687e-007            
3.8387204e-005  1.993802e-007            
3.8587138e-005  1.9928499e-007            
3.8787071e-005  1.9906006e-007            
3.8987004e-005  1.9900717e-007            
3.9186938e-005  1.9881241e-007            
3.9386871e-005  1.9866839e-007            
3.9586804e-005  1.9824626e-007            
3.9786738e-005  1.9790554e-007            
3.9986671e-005  1.9761362e-007            
4.0186604e-005  1.9726687e-007            
4.0386538e-005  1.9692767e-007            
4.0586471e-005  1.9647556e-007            
4.0786405e-005  1.9592038e-007            
4.0986338e-005  1.9541073e-007            
4.1186271e-005  1.9468272e-007            
4.1386205e-005  1.941093e-007            
4.1586138e-005  1.9349417e-007            
4.1786071e-005  1.9292384e-007            
4.1986005e-005  1.9220168e-007            
4.2185938e-005  1.9134299e-007            
4.2385871e-005  1.9045515e-007            
4.2585805e-005  1.8980552e-007            
4.2785738e-005  1.8916021e-007            
4.2985671e-005  1.8850084e-007            
4.3185605e-005  1.8762432e-007            
4.3385538e-005  1.8673612e-007            
4.3585471e-005  1.8599395e-007            
4.3785405e-005  1.8512581e-007            
4.3985338e-005  1.8423477e-007            
4.4185272e-005  1.8354226e-007            
4.4385205e-005  1.8262815e-007            
4.4585138e-005  1.8170255e-007            
4.4785072e-005  1.8054407e-007            
4.4985005e-005  1.7942162e-007            
4.5184938e-005  1.786677e-007            
4.5384872e-005  1.7798615e-007            
4.5584805e-005  1.7698328e-007            
4.5784738e-005  1.7582314e-007            
4.5984672e-005  1.7456068e-007            
4.6184605e-005  1.7375954e-007            
4.6384538e-005  1.7287588e-007            
4.6584472e-005  1.7193454e-007            
4.6784405e-005  1.7075277e-007            
4.6984339e-005  1.6972401e-007            
4.7184272e-005  1.6869769e-007            
4.7384205e-005  1.6758374e-007            
4.7584139e-005  1.6653509e-007            
4.7784072e-005  1.656468e-007            
4.7984005e-005  1.6470173e-007            
4.8183939e-005  1.635944e-007            
4.8383872e-005  1.6235705e-007            
4.8583805e-005  1.6108399e-007            
4.8783739e-005  1.6023259e-007            
4.8983672e-005  1.5929138e-007            
4.9183605e-005  1.5808775e-007            
4.9383539e-005  1.5681505e-007            
4.9583472e-005  1.5551406e-007            
4.9783406e-005  1.5446588e-007            
4.9983339e-005  1.5346438e-007            
5.0183272e-005  1.524096e-007            
5.0383206e-005  1.5124124e-007            
5.0583139e-005  1.5019973e-007            
5.0783072e-005  1.4920681e-007            
5.0983006e-005  1.4836798e-007            
5.1182939e-005  1.4743782e-007            
5.1382872e-005  1.4648677e-007            
5.1582806e-005  1.4565345e-007            
5.1782739e-005  1.4464103e-007            
5.1982672e-005  1.4361551e-007            
5.2182606e-005  1.4271521e-007            
5.2382539e-005  1.4192684e-007            
5.2582472e-005  1.4111816e-007            
5.2782406e-005  1.4006138e-007            
5.2982339e-005  1.3911487e-007            
5.3182273e-005  1.3826736e-007            
5.3382206e-005  1.3748799e-007            
5.3582139e-005  1.3688854e-007            
5.3782073e-005  1.361554e-007            
5.3982006e-005  1.3534977e-007            
5.4181939e-005  1.3455356e-007            
5.4381873e-005  1.3359073e-007            
5.4581806e-005  1.3275473e-007            
5.4781739e-005  1.318396e-007            
5.4981673e-005  1.310458e-007            
5.5181606e-005  1.3047345e-007            
5.5381539e-005  1.2946858e-007            
5.5581473e-005  1.2844336e-007            
5.5781406e-005  1.272989e-007            
5.598134e-005  1.2636329e-007            
5.6181273e-005  1.2558084e-007            
5.6381206e-005  1.2444005e-007            
5.658114e-005  1.2326409e-007            
5.6781073e-005  1.2207379e-007            
5.6981006e-005  1.2094337e-007            
5.718094e-005  1.1974497e-007            
5.7380873e-005  1.1840947e-007            
5.7580806e-005  1.1704626e-007            
5.778074e-005  1.1596568e-007            
5.7980673e-005  1.1490529e-007            
5.8180606e-005  1.1374402e-007            
5.838054e-005  1.1239954e-007            
5.8580473e-005  1.1119413e-007            
5.8780407e-005  1.1004477e-007            
5.898034e-005  1.0883969e-007            
5.9180273e-005  1.0752622e-007            
5.9380207e-005  1.0618879e-007            
5.958014e-005  1.050197e-007            
5.9780073e-005  1.0404697e-007            
5.9980007e-005  1.0292945e-007            
6.017994e-005  1.0164132e-007            
6.0379873e-005  1.0022136e-007            
6.0579807e-005  9.9027674e-008            
6.077974e-005  9.7916534e-008            
6.0979673e-005  9.6960926e-008            
6.1179607e-005  9.5727227e-008            
6.137954e-005  9.4637472e-008            
6.1579473e-005  9.3469943e-008            
6.1779407e-005  9.2258445e-008            
6.197934e-005  9.1021411e-008            
6.2179274e-005  8.9901119e-008            
6.2379207e-005  8.873384e-008            
6.257914e-005  8.7642472e-008            
6.2779074e-005  8.6284715e-008            
6.2979007e-005  8.4946521e-008            
6.317894e-005  8.3616135e-008            
6.3378874e-005  8.2381087e-008            
6.3578807e-005  8.1224389e-008            
6.377874e-005  7.9907248e-008            
6.3978674e-005  7.8542045e-008            
6.4178607e-005  7.7200323e-008            
6.437854e-005  7.5791948e-008            
6.4578474e-005  7.4558737e-008            
6.4778407e-005  7.3224324e-008            
6.4978341e-005  7.1866226e-008            
6.5178274e-005  7.032459e-008            
6.5378207e-005  6.878868e-008            
6.5578141e-005  6.7317409e-008            
6.5778074e-005  6.586615e-008            
6.5978007e-005  6.444528e-008            
6.6177941e-005  6.2868236e-008            
6.6377874e-005  6.1310971e-008            
6.6577807e-005  5.9823987e-008            
6.6777741e-005  5.8269336e-008            
6.6977674e-005  5.6746483e-008            
6.7177607e-005  5.5093554e-008            
6.7377541e-005  5.3197885e-008            
6.7577474e-005  5.1444427e-008            
6.7777407e-005  4.9742578e-008            
6.7977341e-005  4.7999083e-008            
6.8177274e-005  4.6339324e-008            
6.8377208e-005  4.4381889e-008            
6.8577141e-005  4.2353103e-008            
6.8777074e-005  4.0530984e-008            
6.8977008e-005  3.8657907e-008            
6.9176941e-005  3.6798594e-008            
6.9376874e-005  3.5052036e-008            
6.9576808e-005  3.320108e-008            
6.9776741e-005  3.1327829e-008            
6.9976674e-005  2.958229e-008            
7.0176608e-005  2.7665257e-008            
7.0376541e-005  2.618239e-008            
7.0576474e-005  2.4564583e-008            
7.0776408e-005  2.2712071e-008            
7.0976341e-005  2.0841437e-008            
7.1176275e-005  1.8768184e-008            
7.1376208e-005  1.7041614e-008            
7.1576141e-005  1.5191771e-008            
7.1776075e-005  1.3384696e-008            
7.1976008e-005  1.1323931e-008            
7.2175941e-005  9.289791e-009            
7.2375875e-005  7.1190613e-009            
7.2575808e-005  5.1024127e-009            
7.2775741e-005  3.0266993e-009            
7.2975675e-005  7.8861944e-010            
7.3175608e-005  -1.4263604e-009            
7.3375541e-005  -3.8090485e-009            
7.3575475e-005  -6.0826455e-009            
7.3775408e-005  -8.4584753e-009            
7.3975342e-005  -1.0676205e-008            
7.4175275e-005  -1.2978064e-008            
7.4375208e-005  -1.5320519e-008            
7.4575142e-005  -1.7551901e-008            
7.4775075e-005  -1.9874978e-008            
7.4975008e-005  -2.1991641e-008            
7.5174942e-005  -2.4169931e-008            
7.5374875e-005  -2.6294612e-008            
7.5574808e-005  -2.8408061e-008            
7.5774742e-005  -3.0686041e-008            
7.5974675e-005  -3.2986446e-008            
7.6174608e-005  -3.5064285e-008            
7.6374542e-005  -3.7114002e-008            
7.6574475e-005  -3.9093498e-008            
7.6774408e-005  -4.1168693e-008            
7.6974342e-005  -4.3521055e-008            
7.7174275e-005  -4.5561637e-008            
7.7374209e-005  -4.7927461e-008            
7.7574142e-005  -5.0135752e-008            
7.7774075e-005  -5.2324644e-008            
7.7974009e-005  -5.4683021e-008            
7.8173942e-005  -5.7041969e-008            
7.8373875e-005  -5.9473384e-008            
7.8573809e-005  -6.1894539e-008            
7.8773742e-005  -6.4085353e-008            
7.8973675e-005  -6.6275939e-008            
7.9173609e-005  -6.8559259e-008            
7.9373542e-005  -7.0813807e-008            
7.9573475e-005  -7.305462e-008            
7.9773409e-005  -7.5167159e-008            
7.9973342e-005  -7.7344862e-008            
8.0173276e-005  -7.9556031e-008            
8.0373209e-005  -8.1642341e-008            
8.0573142e-005  -8.3860366e-008            
8.0773076e-005  -8.6014795e-008            
8.0973009e-005  -8.8389445e-008            
8.1172942e-005  -9.0681933e-008            
8.1372876e-005  -9.2741871e-008            
8.1572809e-005  -9.4795988e-008            
8.1772742e-005  -9.6996806e-008            
8.1972676e-005  -9.9413863e-008            
8.2172609e-005  -1.0190978e-007            
8.2372542e-005  -1.0436119e-007            
8.2572476e-005  -1.0654842e-007            
8.2772409e-005  -1.0885801e-007            
8.2972343e-005  -1.1105301e-007            
8.3172276e-005  -1.1354995e-007            
8.3372209e-005  -1.1591522e-007            
8.3572143e-005  -1.1816296e-007            
8.3772076e-005  -1.2047897e-007            
8.3972009e-005  -1.2272019e-007            
8.4171943e-005  -1.2499374e-007            
8.4371876e-005  -1.2723898e-007            
8.4571809e-005  -1.2931277e-007            
8.4771743e-005  -1.3169693e-007            
8.4971676e-005  -1.3389716e-007            
8.5171609e-005  -1.3605216e-007            
8.5371543e-005  -1.3828304e-007            
8.5571476e-005  -1.4054954e-007            
8.5771409e-005  -1.4293673e-007            
8.5971343e-005  -1.4547517e-007            
8.6171276e-005  -1.4772005e-007            
8.637121e-005  -1.4984193e-007            
8.6571143e-005  -1.5203312e-007            
8.6771076e-005  -1.5436958e-007            
8.697101e-005  -1.5709058e-007            
8.7170943e-005  -1.5958555e-007            
8.7370876e-005  -1.6178916e-007            
8.757081e-005  -1.6378672e-007            
8.7770743e-005  -1.6601049e-007            
8.7970676e-005  -1.683544e-007            
8.817061e-005  -1.7071513e-007            
8.8370543e-005  -1.729705e-007            
8.8570476e-005  -1.749883e-007            
8.877041e-005  -1.7702178e-007            
8.8970343e-005  -1.7921667e-007            
8.9170277e-005  -1.8150054e-007            
8.937021e-005  -1.8369577e-007            
8.9570143e-005  -1.8592381e-007            
8.9770077e-005  -1.8781341e-007            
8.997001e-005  -1.89848e-007            
9.0169943e-005  -1.9207369e-007            
9.0369877e-005  -1.9420861e-007            
9.056981e-005  -1.9632414e-007            
9.0769743e-005  -1.9833518e-007            
9.0969677e-005  -2.0036282e-007            
9.116961e-005  -2.0242368e-007            
9.1369543e-005  -2.04462e-007            
9.1569477e-005  -2.0650137e-007            
9.176941e-005  -2.0867922e-007            
9.1969344e-005  -2.1089972e-007            
9.2169277e-005  -2.129284e-007            
9.236921e-005  -2.147155e-007            
