Surface Profile             
x       y           
[m]     [m]         
0  -8.4641524e-009            
1.9993336e-007  -1.1848788e-008            
3.9986671e-007  -1.4702974e-008            
5.9980007e-007  -1.71298e-008            
7.9973342e-007  -1.9290609e-008            
9.9966678e-007  -2.1195924e-008            
1.1996001e-006  -2.3120589e-008            
1.3995335e-006  -2.5356531e-008            
1.5994668e-006  -2.7619463e-008            
1.7994002e-006  -3.0031275e-008            
1.9993336e-006  -3.2614974e-008            
2.1992669e-006  -3.531204e-008            
2.3992003e-006  -3.7780026e-008            
2.5991336e-006  -4.0374988e-008            
2.799067e-006  -4.2761954e-008            
2.9990003e-006  -4.5458732e-008            
3.1989337e-006  -4.8012508e-008            
3.398867e-006  -5.0330732e-008            
3.5988004e-006  -5.2629479e-008            
3.7987338e-006  -5.5008296e-008            
3.9986671e-006  -5.7534154e-008            
4.1986005e-006  -6.0090938e-008            
4.3985338e-006  -6.2315405e-008            
4.5984672e-006  -6.468729e-008            
4.7984005e-006  -6.6801173e-008            
4.9983339e-006  -6.9077212e-008            
5.1982672e-006  -7.1238551e-008            
5.3982006e-006  -7.3383517e-008            
5.598134e-006  -7.5596159e-008            
5.7980673e-006  -7.7776366e-008            
5.9980007e-006  -7.9869227e-008            
6.197934e-006  -8.1892419e-008            
6.3978674e-006  -8.3888225e-008            
6.5978007e-006  -8.6155365e-008            
6.7977341e-006  -8.8328398e-008            
6.9976674e-006  -9.0225253e-008            
7.1976008e-006  -9.1902397e-008            
7.3975342e-006  -9.404124e-008            
7.5974675e-006  -9.6219928e-008            
7.7974009e-006  -9.8124509e-008            
7.9973342e-006  -9.9500574e-008            
8.1972676e-006  -1.011123e-007            
8.3972009e-006  -1.0272735e-007            
8.5971343e-006  -1.0448952e-007            
8.7970676e-006  -1.0608805e-007            
8.997001e-006  -1.0748336e-007            
9.1969344e-006  -1.0901059e-007            
9.3968677e-006  -1.1044495e-007            
9.5968011e-006  -1.1148957e-007            
9.7967344e-006  -1.1259478e-007            
9.9966678e-006  -1.1405717e-007            
1.0196601e-005  -1.1542774e-007            
1.0396534e-005  -1.1650449e-007            
1.0596468e-005  -1.1716211e-007            
1.0796401e-005  -1.1799658e-007            
1.0996335e-005  -1.1908624e-007            
1.1196268e-005  -1.19991e-007            
1.1396201e-005  -1.2069639e-007            
1.1596135e-005  -1.2120561e-007            
1.1796068e-005  -1.2190636e-007            
1.1996001e-005  -1.2241804e-007            
1.2195935e-005  -1.2285101e-007            
1.2395868e-005  -1.2301817e-007            
1.2595801e-005  -1.2322312e-007            
1.2795735e-005  -1.2345717e-007            
1.2995668e-005  -1.2354252e-007            
1.3195601e-005  -1.2323555e-007            
1.3395535e-005  -1.2307287e-007            
1.3595468e-005  -1.2317104e-007            
1.3795402e-005  -1.2315905e-007            
1.3995335e-005  -1.2284611e-007            
1.4195268e-005  -1.2211664e-007            
1.4395202e-005  -1.2166572e-007            
1.4595135e-005  -1.2151576e-007            
1.4795068e-005  -1.2080747e-007            
1.4995002e-005  -1.1975797e-007            
1.5194935e-005  -1.1895262e-007            
1.5394868e-005  -1.1832836e-007            
1.5594802e-005  -1.1739044e-007            
1.5794735e-005  -1.1613811e-007            
1.5994668e-005  -1.1448864e-007            
1.6194602e-005  -1.1350939e-007            
1.6394535e-005  -1.124153e-007            
1.6594469e-005  -1.1076291e-007            
1.6794402e-005  -1.0903399e-007            
1.6994335e-005  -1.0744741e-007            
1.7194269e-005  -1.0647149e-007            
1.7394202e-005  -1.0539292e-007            
1.7594135e-005  -1.0346489e-007            
1.7794069e-005  -1.0152031e-007            
1.7994002e-005  -9.9971787e-008            
1.8193935e-005  -9.8467668e-008            
1.8393869e-005  -9.6649491e-008            
1.8593802e-005  -9.4745884e-008            
1.8793735e-005  -9.3103825e-008            
1.8993669e-005  -9.1681114e-008            
1.9193602e-005  -9.0167565e-008            
1.9393535e-005  -8.8064544e-008            
1.9593469e-005  -8.5972803e-008            
1.9793402e-005  -8.4237928e-008            
1.9993336e-005  -8.243927e-008            
2.0193269e-005  -8.0550128e-008            
2.0393202e-005  -7.8335267e-008            
2.0593136e-005  -7.6493253e-008            
2.0793069e-005  -7.4968345e-008            
2.0993002e-005  -7.2956316e-008            
2.1192936e-005  -7.0857585e-008            
2.1392869e-005  -6.889173e-008            
2.1592802e-005  -6.7289869e-008            
2.1792736e-005  -6.5717091e-008            
2.1992669e-005  -6.3819593e-008            
2.2192602e-005  -6.1709108e-008            
2.2392536e-005  -5.9926741e-008            
2.2592469e-005  -5.8132142e-008            
2.2792403e-005  -5.5957639e-008            
2.2992336e-005  -5.3573298e-008            
2.3192269e-005  -5.1473421e-008            
2.3392203e-005  -4.9796295e-008            
2.3592136e-005  -4.8186267e-008            
2.3792069e-005  -4.6010806e-008            
2.3992003e-005  -4.3894692e-008            
2.4191936e-005  -4.2140344e-008            
2.4391869e-005  -4.0380136e-008            
2.4591803e-005  -3.8232987e-008            
2.4791736e-005  -3.5882716e-008            
2.4991669e-005  -3.3663684e-008            
2.5191603e-005  -3.1789197e-008            
2.5391536e-005  -2.9837535e-008            
2.5591469e-005  -2.7442175e-008            
2.5791403e-005  -2.5218016e-008            
2.5991336e-005  -2.3317809e-008            
2.619127e-005  -2.1189623e-008            
2.6391203e-005  -1.8621579e-008            
2.6591136e-005  -1.6095872e-008            
2.679107e-005  -1.3728053e-008            
2.6991003e-005  -1.1932437e-008            
2.7190936e-005  -9.9049817e-009            
2.739087e-005  -7.5464279e-009            
2.7590803e-005  -5.3463699e-009            
2.7790736e-005  -3.2285777e-009            
2.799067e-005  -1.0387805e-009            
2.8190603e-005  1.1338275e-009            
2.8390536e-005  3.386099e-009            
2.859047e-005  5.1336396e-009            
2.8790403e-005  6.9513019e-009            
2.8990337e-005  9.0109098e-009            
2.919027e-005  1.0919084e-008            
2.9390203e-005  1.2847693e-008            
2.9590137e-005  1.4683607e-008            
2.979007e-005  1.6576992e-008            
2.9990003e-005  1.8774758e-008            
3.0189937e-005  2.0836249e-008            
3.038987e-005  2.2596746e-008            
3.0589803e-005  2.4420224e-008            
3.0789737e-005  2.6594777e-008            
3.098967e-005  2.8878355e-008            
3.1189603e-005  3.0962242e-008            
3.1389537e-005  3.2687133e-008            
3.158947e-005  3.4444134e-008            
3.1789404e-005  3.6388822e-008            
3.1989337e-005  3.8166827e-008            
3.218927e-005  4.0132591e-008            
3.2389204e-005  4.2278217e-008            
3.2589137e-005  4.4656664e-008            
3.278907e-005  4.6702671e-008            
3.2989004e-005  4.829444e-008            
3.3188937e-005  4.9864584e-008            
3.338887e-005  5.1895952e-008            
3.3588804e-005  5.3953559e-008            
3.3788737e-005  5.5694887e-008            
3.398867e-005  5.6952907e-008            
3.4188604e-005  5.8694087e-008            
3.4388537e-005  6.0516786e-008            
3.458847e-005  6.2541838e-008            
3.4788404e-005  6.4199175e-008            
3.4988337e-005  6.5874894e-008            
3.5188271e-005  6.7432373e-008            
3.5388204e-005  6.9082034e-008            
3.5588137e-005  7.058245e-008            
3.5788071e-005  7.2537375e-008            
3.5988004e-005  7.4269858e-008            
3.6187937e-005  7.6240286e-008            
3.6387871e-005  7.7772141e-008            
3.6587804e-005  7.8930665e-008            
3.6787737e-005  8.0495693e-008            
3.6987671e-005  8.2128418e-008            
3.7187604e-005  8.3785253e-008            
3.7387537e-005  8.5272879e-008            
3.7587471e-005  8.6629651e-008            
3.7787404e-005  8.809798e-008            
3.7987338e-005  8.962179e-008            
3.8187271e-005  9.0861204e-008            
3.8387204e-005  9.2225637e-008            
3.8587138e-005  9.3590381e-008            
3.8787071e-005  9.5022545e-008            
3.8987004e-005  9.64743e-008            
3.9186938e-005  9.7474781e-008            
3.9386871e-005  9.8551326e-008            
3.9586804e-005  1.0008757e-007            
3.9786738e-005  1.0114681e-007            
3.9986671e-005  1.0239401e-007            
4.0186604e-005  1.0329422e-007            
4.0386538e-005  1.0438897e-007            
4.0586471e-005  1.0596261e-007            
4.0786405e-005  1.0721058e-007            
4.0986338e-005  1.083242e-007            
4.1186271e-005  1.0933471e-007            
4.1386205e-005  1.1041665e-007            
4.1586138e-005  1.1162999e-007            
4.1786071e-005  1.1245914e-007            
4.1986005e-005  1.1357082e-007            
4.2185938e-005  1.1485887e-007            
4.2385871e-005  1.1617473e-007            
4.2585805e-005  1.1708342e-007            
4.2785738e-005  1.1774201e-007            
4.2985671e-005  1.1874271e-007            
4.3185605e-005  1.2008895e-007            
4.3385538e-005  1.2121701e-007            
4.3585471e-005  1.2226342e-007            
4.3785405e-005  1.2276983e-007            
4.3985338e-005  1.2371053e-007            
4.4185272e-005  1.2487891e-007            
4.4385205e-005  1.2594263e-007            
4.4585138e-005  1.2672608e-007            
4.4785072e-005  1.2745956e-007            
4.4985005e-005  1.2830207e-007            
4.5184938e-005  1.2913126e-007            
4.5384872e-005  1.298174e-007            
4.5584805e-005  1.3052533e-007            
4.5784738e-005  1.3151626e-007            
4.5984672e-005  1.3250355e-007            
4.6184605e-005  1.3317739e-007            
4.6384538e-005  1.3370551e-007            
4.6584472e-005  1.3426442e-007            
4.6784405e-005  1.3505755e-007            
4.6984339e-005  1.3562119e-007            
4.7184272e-005  1.3588347e-007            
4.7384205e-005  1.3623648e-007            
4.7584139e-005  1.3664185e-007            
4.7784072e-005  1.3707168e-007            
4.7984005e-005  1.3738911e-007            
4.8183939e-005  1.3750422e-007            
4.8383872e-005  1.3790349e-007            
4.8583805e-005  1.3828012e-007            
4.8783739e-005  1.3813515e-007            
4.8983672e-005  1.381536e-007            
4.9183605e-005  1.3833868e-007            
4.9383539e-005  1.3888122e-007            
4.9583472e-005  1.3915364e-007            
4.9783406e-005  1.3885447e-007            
4.9983339e-005  1.3864299e-007            
5.0183272e-005  1.3880964e-007            
5.0383206e-005  1.3932005e-007            
5.0583139e-005  1.3955318e-007            
5.0783072e-005  1.3947053e-007            
5.0983006e-005  1.3950604e-007            
5.1182939e-005  1.3984174e-007            
5.1382872e-005  1.4019177e-007            
5.1582806e-005  1.4050262e-007            
5.1782739e-005  1.4090081e-007            
5.1982672e-005  1.4160535e-007            
5.2182606e-005  1.4188267e-007            
5.2382539e-005  1.4207378e-007            
5.2582472e-005  1.4211414e-007            
5.2782406e-005  1.426075e-007            
5.2982339e-005  1.433596e-007            
5.3182273e-005  1.4386982e-007            
5.3382206e-005  1.439502e-007            
5.3582139e-005  1.4405518e-007            
5.3782073e-005  1.4453557e-007            
5.3982006e-005  1.4522695e-007            
5.4181939e-005  1.4575331e-007            
5.4381873e-005  1.4599017e-007            
5.4581806e-005  1.4634642e-007            
5.4781739e-005  1.4684439e-007            
5.4981673e-005  1.4706131e-007            
5.5181606e-005  1.4749306e-007            
5.5381539e-005  1.4797046e-007            
5.5581473e-005  1.4859381e-007            
5.5781406e-005  1.4900168e-007            
5.598134e-005  1.4917088e-007            
5.6181273e-005  1.4955184e-007            
5.6381206e-005  1.5024196e-007            
5.658114e-005  1.5076198e-007            
5.6781073e-005  1.5113278e-007            
5.6981006e-005  1.5130738e-007            
5.718094e-005  1.5159575e-007            
5.7380873e-005  1.5230805e-007            
5.7580806e-005  1.5279582e-007            
5.778074e-005  1.5318761e-007            
5.7980673e-005  1.532627e-007            
5.8180606e-005  1.5369509e-007            
5.838054e-005  1.5409861e-007            
5.8580473e-005  1.5447912e-007            
5.8780407e-005  1.5487352e-007            
5.898034e-005  1.5518659e-007            
5.9180273e-005  1.5567822e-007            
5.9380207e-005  1.5595129e-007            
5.958014e-005  1.5599518e-007            
5.9780073e-005  1.5631339e-007            
5.9980007e-005  1.56934e-007            
6.017994e-005  1.5740848e-007            
6.0379873e-005  1.5741533e-007            
6.0579807e-005  1.5733067e-007            
6.077974e-005  1.5773446e-007            
6.0979673e-005  1.5865595e-007            
6.1179607e-005  1.591795e-007            
6.137954e-005  1.5932414e-007            
6.1579473e-005  1.5950602e-007            
6.1779407e-005  1.5983113e-007            
6.197934e-005  1.6033955e-007            
6.2179274e-005  1.6075321e-007            
6.2379207e-005  1.6096432e-007            
6.257914e-005  1.6145341e-007            
6.2779074e-005  1.6166738e-007            
6.2979007e-005  1.6190493e-007            
6.317894e-005  1.6192571e-007            
6.3378874e-005  1.6212889e-007            
6.3578807e-005  1.6301404e-007            
6.377874e-005  1.6346216e-007            
6.3978674e-005  1.6363248e-007            
6.4178607e-005  1.6379683e-007            
6.437854e-005  1.639915e-007            
6.4578474e-005  1.6439515e-007            
6.4778407e-005  1.6471509e-007            
6.4978341e-005  1.6477865e-007            
6.5178274e-005  1.650733e-007            
6.5378207e-005  1.6524863e-007            
6.5578141e-005  1.6546854e-007            
6.5778074e-005  1.6559737e-007            
6.5978007e-005  1.6599233e-007            
6.6177941e-005  1.6644254e-007            
6.6377874e-005  1.6677019e-007            
6.6577807e-005  1.6675732e-007            
6.6777741e-005  1.6670921e-007            
6.6977674e-005  1.6701701e-007            
6.7177607e-005  1.674806e-007            
6.7377541e-005  1.6778102e-007            
6.7577474e-005  1.6805555e-007            
6.7777407e-005  1.6841007e-007            
6.7977341e-005  1.6864553e-007            
6.8177274e-005  1.6894499e-007            
6.8377208e-005  1.6899083e-007            
6.8577141e-005  1.6921626e-007            
6.8777074e-005  1.6957236e-007            
6.8977008e-005  1.6984649e-007            
6.9176941e-005  1.6992247e-007            
6.9376874e-005  1.6990703e-007            
6.9576808e-005  1.7026686e-007            
6.9776741e-005  1.7073772e-007            
6.9976674e-005  1.7111857e-007            
7.0176608e-005  1.7134202e-007            
7.0376541e-005  1.7152918e-007            
7.0576474e-005  1.7196295e-007            
7.0776408e-005  1.7220389e-007            
7.0976341e-005  1.7245968e-007            
7.1176275e-005  1.7253596e-007            
7.1376208e-005  1.7279065e-007            
7.1576141e-005  1.7294276e-007            
7.1776075e-005  1.7299434e-007            
7.1976008e-005  1.733179e-007            
7.2175941e-005  1.7374714e-007            
7.2375875e-005  1.7414482e-007            
7.2575808e-005  1.7417334e-007            
7.2775741e-005  1.740198e-007            
7.2975675e-005  1.7419269e-007            
7.3175608e-005  1.7434442e-007            
7.3375541e-005  1.7473543e-007            
7.3575475e-005  1.7474115e-007            
7.3775408e-005  1.7461017e-007            
7.3975342e-005  1.7462846e-007            
7.4175275e-005  1.7483443e-007            
7.4375208e-005  1.7498849e-007            
7.4575142e-005  1.7519346e-007            
7.4775075e-005  1.7517885e-007            
7.4975008e-005  1.7530423e-007            
7.5174942e-005  1.7529258e-007            
7.5374875e-005  1.7522395e-007            
7.5574808e-005  1.7536833e-007            
7.5774742e-005  1.7567942e-007            
7.5974675e-005  1.7591133e-007            
7.6174608e-005  1.7577913e-007            
7.6374542e-005  1.7549748e-007            
7.6574475e-005  1.7531814e-007            
7.6774408e-005  1.7568419e-007            
7.6974342e-005  1.759581e-007            
7.7174275e-005  1.7599544e-007            
7.7374209e-005  1.758131e-007            
7.7574142e-005  1.7558697e-007            
7.7774075e-005  1.7597212e-007            
7.7974009e-005  1.7615213e-007            
7.8173942e-005  1.7615306e-007            
7.8373875e-005  1.7621992e-007            
7.8573809e-005  1.7585015e-007            
7.8773742e-005  1.7577613e-007            
7.8973675e-005  1.7565267e-007            
7.9173609e-005  1.7537069e-007            
7.9373542e-005  1.7553508e-007            
7.9573475e-005  1.7585811e-007            
7.9773409e-005  1.7593519e-007            
7.9973342e-005  1.7581804e-007            
8.0173276e-005  1.7558453e-007            
8.0373209e-005  1.7570115e-007            
8.0573142e-005  1.7573345e-007            
8.0773076e-005  1.7556052e-007            
8.0973009e-005  1.7513086e-007            
8.1172942e-005  1.7490698e-007            
8.1372876e-005  1.7492765e-007            
8.1572809e-005  1.7469416e-007            
8.1772742e-005  1.7440222e-007            
8.1972676e-005  1.7412983e-007            
8.2172609e-005  1.7393628e-007            
8.2372542e-005  1.7369498e-007            
8.2572476e-005  1.7303007e-007            
8.2772409e-005  1.7263941e-007            
8.2972343e-005  1.723196e-007            
8.3172276e-005  1.7211085e-007            
8.3372209e-005  1.7167031e-007            
8.3572143e-005  1.7098446e-007            
8.3772076e-005  1.7036067e-007            
8.3972009e-005  1.7020084e-007            
8.4171943e-005  1.6987988e-007            
8.4371876e-005  1.6924121e-007            
8.4571809e-005  1.684985e-007            
8.4771743e-005  1.6787765e-007            
8.4971676e-005  1.6752825e-007            
8.5171609e-005  1.6717139e-007            
8.5371543e-005  1.664078e-007            
8.5571476e-005  1.6581813e-007            
8.5771409e-005  1.6544914e-007            
8.5971343e-005  1.6488632e-007            
8.6171276e-005  1.641996e-007            
8.637121e-005  1.6360372e-007            
8.6571143e-005  1.6326874e-007            
8.6771076e-005  1.6290885e-007            
8.697101e-005  1.6200851e-007            
8.7170943e-005  1.6126948e-007            
8.7370876e-005  1.6069549e-007            
8.757081e-005  1.604296e-007            
8.7770743e-005  1.600524e-007            
8.7970676e-005  1.5906556e-007            
8.817061e-005  1.5829634e-007            
8.8370543e-005  1.5790812e-007            
8.8570476e-005  1.5757613e-007            
8.877041e-005  1.5703893e-007            
8.8970343e-005  1.5625585e-007            
8.9170277e-005  1.5575181e-007            
8.937021e-005  1.5527454e-007            
8.9570143e-005  1.5450457e-007            
8.9770077e-005  1.5364328e-007            
8.997001e-005  1.531766e-007            
9.0169943e-005  1.5291125e-007            
9.0369877e-005  1.5243343e-007            
9.056981e-005  1.5165576e-007            
9.0769743e-005  1.5094714e-007            
9.0969677e-005  1.5050301e-007            
9.116961e-005  1.5023596e-007            
9.1369543e-005  1.4988547e-007            
9.1569477e-005  1.4933275e-007            
9.176941e-005  1.4893642e-007            
9.1969344e-005  1.4847075e-007            
9.2169277e-005  1.4787579e-007            
