Surface Profile             
x       y           
[m]     [m]         
0  -4.1967937e-010            
1.9993336e-007  -6.5781487e-010            
3.9986671e-007  -1.310697e-009            
5.9980007e-007  -1.6655351e-009            
7.9973342e-007  -2.2934355e-009            
9.9966678e-007  -2.6818678e-009            
1.1996001e-006  -3.098169e-009            
1.3995335e-006  -3.4923468e-009            
1.5994668e-006  -3.9330372e-009            
1.7994002e-006  -4.2599447e-009            
1.9993336e-006  -4.5921006e-009            
2.1992669e-006  -4.9992618e-009            
2.3992003e-006  -5.6547316e-009            
2.5991336e-006  -6.3918524e-009            
2.799067e-006  -6.9467663e-009            
2.9990003e-006  -7.5727834e-009            
3.1989337e-006  -8.253647e-009            
3.398867e-006  -9.2759112e-009            
3.5988004e-006  -1.0200619e-008            
3.7987338e-006  -1.1140573e-008            
3.9986671e-006  -1.1954856e-008            
4.1986005e-006  -1.2820498e-008            
4.3985338e-006  -1.4044814e-008            
4.5984672e-006  -1.5358328e-008            
4.7984005e-006  -1.6405491e-008            
4.9983339e-006  -1.7560218e-008            
5.1982672e-006  -1.8533382e-008            
5.3982006e-006  -1.948812e-008            
5.598134e-006  -2.0608059e-008            
5.7980673e-006  -2.1727259e-008            
5.9980007e-006  -2.2827829e-008            
6.197934e-006  -2.389019e-008            
6.3978674e-006  -2.460136e-008            
6.5978007e-006  -2.5284682e-008            
6.7977341e-006  -2.5919735e-008            
6.9976674e-006  -2.6841127e-008            
7.1976008e-006  -2.7923495e-008            
7.3975342e-006  -2.8541723e-008            
7.5974675e-006  -2.892843e-008            
7.7974009e-006  -2.9491285e-008            
7.9973342e-006  -3.0233246e-008            
8.1972676e-006  -3.0999254e-008            
8.3972009e-006  -3.1702322e-008            
8.5971343e-006  -3.2336985e-008            
8.7970676e-006  -3.2885144e-008            
8.997001e-006  -3.329572e-008            
9.1969344e-006  -3.3972107e-008            
9.3968677e-006  -3.488534e-008            
9.5968011e-006  -3.5750774e-008            
9.7967344e-006  -3.6685493e-008            
9.9966678e-006  -3.7231983e-008            
1.0196601e-005  -3.7676247e-008            
1.0396534e-005  -3.8412556e-008            
1.0596468e-005  -3.9481762e-008            
1.0796401e-005  -4.0606514e-008            
1.0996335e-005  -4.1254887e-008            
1.1196268e-005  -4.1835282e-008            
1.1396201e-005  -4.2405812e-008            
1.1596135e-005  -4.3304748e-008            
1.1796068e-005  -4.4378529e-008            
1.1996001e-005  -4.5407775e-008            
1.2195935e-005  -4.6345029e-008            
1.2395868e-005  -4.7118362e-008            
1.2595801e-005  -4.7737139e-008            
1.2795735e-005  -4.8783656e-008            
1.2995668e-005  -4.9738355e-008            
1.3195601e-005  -5.0847045e-008            
1.3395535e-005  -5.18938e-008            
1.3595468e-005  -5.2645215e-008            
1.3795402e-005  -5.3445976e-008            
1.3995335e-005  -5.4609662e-008            
1.4195268e-005  -5.559849e-008            
1.4395202e-005  -5.6827567e-008            
1.4595135e-005  -5.7837793e-008            
1.4795068e-005  -5.8788978e-008            
1.4995002e-005  -5.9696046e-008            
1.5194935e-005  -6.074239e-008            
1.5394868e-005  -6.1817819e-008            
1.5594802e-005  -6.3116769e-008            
1.5794735e-005  -6.4290848e-008            
1.5994668e-005  -6.5315331e-008            
1.6194602e-005  -6.6340902e-008            
1.6394535e-005  -6.7337516e-008            
1.6594469e-005  -6.8520104e-008            
1.6794402e-005  -6.9798062e-008            
1.6994335e-005  -7.1137888e-008            
1.7194269e-005  -7.238767e-008            
1.7394202e-005  -7.3373118e-008            
1.7594135e-005  -7.4468147e-008            
1.7794069e-005  -7.5768179e-008            
1.7994002e-005  -7.716535e-008            
1.8193935e-005  -7.8312688e-008            
1.8393869e-005  -7.9478937e-008            
1.8593802e-005  -8.0583229e-008            
1.8793735e-005  -8.171669e-008            
1.8993669e-005  -8.3025176e-008            
1.9193602e-005  -8.4224771e-008            
1.9393535e-005  -8.5123657e-008            
1.9593469e-005  -8.6313494e-008            
1.9793402e-005  -8.7528783e-008            
1.9993336e-005  -8.8737689e-008            
2.0193269e-005  -8.9844412e-008            
2.0393202e-005  -9.1007529e-008            
2.0593136e-005  -9.2249038e-008            
2.0793069e-005  -9.3505677e-008            
2.0993002e-005  -9.4425022e-008            
2.1192936e-005  -9.5531354e-008            
2.1392869e-005  -9.6697545e-008            
2.1592802e-005  -9.7913772e-008            
2.1792736e-005  -9.9266492e-008            
2.1992669e-005  -1.0030983e-007            
2.2192602e-005  -1.0113245e-007            
2.2392536e-005  -1.0235578e-007            
2.2592469e-005  -1.0336199e-007            
2.2792403e-005  -1.0469765e-007            
2.2992336e-005  -1.0596482e-007            
2.3192269e-005  -1.0704992e-007            
2.3392203e-005  -1.0804937e-007            
2.3592136e-005  -1.0923441e-007            
2.3792069e-005  -1.104812e-007            
2.3992003e-005  -1.1180247e-007            
2.4191936e-005  -1.1297038e-007            
2.4391869e-005  -1.1403846e-007            
2.4591803e-005  -1.1511404e-007            
2.4791736e-005  -1.1613056e-007            
2.4991669e-005  -1.1700241e-007            
2.5191603e-005  -1.1812632e-007            
2.5391536e-005  -1.1947763e-007            
2.5591469e-005  -1.2072734e-007            
2.5791403e-005  -1.2162435e-007            
2.5991336e-005  -1.2254874e-007            
2.619127e-005  -1.2357813e-007            
2.6391203e-005  -1.2490778e-007            
2.6591136e-005  -1.2621359e-007            
2.679107e-005  -1.27254e-007            
2.6991003e-005  -1.2813943e-007            
2.7190936e-005  -1.2927682e-007            
2.739087e-005  -1.3035115e-007            
2.7590803e-005  -1.3157131e-007            
2.7790736e-005  -1.3275312e-007            
2.799067e-005  -1.3417165e-007            
2.8190603e-005  -1.3521851e-007            
2.8390536e-005  -1.3638101e-007            
2.859047e-005  -1.3760914e-007            
2.8790403e-005  -1.3913752e-007            
2.8990337e-005  -1.4048158e-007            
2.919027e-005  -1.4185302e-007            
2.9390203e-005  -1.4257489e-007            
2.9590137e-005  -1.4379751e-007            
2.979007e-005  -1.4510372e-007            
2.9990003e-005  -1.4670156e-007            
3.0189937e-005  -1.4812874e-007            
3.038987e-005  -1.4924081e-007            
3.0589803e-005  -1.504371e-007            
3.0789737e-005  -1.5178153e-007            
3.098967e-005  -1.5312687e-007            
3.1189603e-005  -1.5440609e-007            
3.1389537e-005  -1.5590833e-007            
3.158947e-005  -1.5715395e-007            
3.1789404e-005  -1.5844702e-007            
3.1989337e-005  -1.5934823e-007            
3.218927e-005  -1.6065939e-007            
3.2389204e-005  -1.6221699e-007            
3.2589137e-005  -1.6394952e-007            
3.278907e-005  -1.6521035e-007            
3.2989004e-005  -1.6610134e-007            
3.3188937e-005  -1.6740162e-007            
3.338887e-005  -1.690565e-007            
3.3588804e-005  -1.7078592e-007            
3.3788737e-005  -1.7227494e-007            
3.398867e-005  -1.7355305e-007            
3.4188604e-005  -1.7480167e-007            
3.4388537e-005  -1.763491e-007            
3.458847e-005  -1.7792173e-007            
3.4788404e-005  -1.7939695e-007            
3.4988337e-005  -1.8095577e-007            
3.5188271e-005  -1.8238977e-007            
3.5388204e-005  -1.8375309e-007            
3.5588137e-005  -1.8495815e-007            
3.5788071e-005  -1.8629909e-007            
3.5988004e-005  -1.8798497e-007            
3.6187937e-005  -1.8973201e-007            
3.6387871e-005  -1.9116097e-007            
3.6587804e-005  -1.9214638e-007            
3.6787737e-005  -1.9337147e-007            
3.6987671e-005  -1.9519082e-007            
3.7187604e-005  -1.9665682e-007            
3.7387537e-005  -1.9769149e-007            
3.7587471e-005  -1.9920232e-007            
3.7787404e-005  -2.0068005e-007            
3.7987338e-005  -2.0199272e-007            
3.8187271e-005  -2.0328724e-007            
3.8387204e-005  -2.0500599e-007            
3.8587138e-005  -2.0670394e-007            
3.8787071e-005  -2.0818336e-007            
3.8987004e-005  -2.0962771e-007            
3.9186938e-005  -2.1125682e-007            
3.9386871e-005  -2.1264974e-007            
3.9586804e-005  -2.1436888e-007            
3.9786738e-005  -2.1627478e-007            
3.9986671e-005  -2.1788857e-007            
4.0186604e-005  -2.1905847e-007            
4.0386538e-005  -2.2049224e-007            
4.0586471e-005  -2.2216406e-007            
4.0786405e-005  -2.2355112e-007            
4.0986338e-005  -2.2488948e-007            
4.1186271e-005  -2.2664763e-007            
4.1386205e-005  -2.2835901e-007            
4.1586138e-005  -2.2957244e-007            
4.1786071e-005  -2.3085303e-007            
4.1986005e-005  -2.3251442e-007            
4.2185938e-005  -2.3437388e-007            
4.2385871e-005  -2.3601815e-007            
4.2585805e-005  -2.3750162e-007            
4.2785738e-005  -2.3911978e-007            
4.2985671e-005  -2.4067015e-007            
4.3185605e-005  -2.4242984e-007            
4.3385538e-005  -2.4431216e-007            
4.3585471e-005  -2.4598182e-007            
4.3785405e-005  -2.4744362e-007            
4.3985338e-005  -2.4917645e-007            
4.4185272e-005  -2.5095926e-007            
4.4385205e-005  -2.5267513e-007            
4.4585138e-005  -2.5429724e-007            
4.4785072e-005  -2.5588696e-007            
4.4985005e-005  -2.5774752e-007            
4.5184938e-005  -2.5930791e-007            
4.5384872e-005  -2.6100785e-007            
4.5584805e-005  -2.6287707e-007            
4.5784738e-005  -2.6458703e-007            
4.5984672e-005  -2.6652091e-007            
4.6184605e-005  -2.6797319e-007            
4.6384538e-005  -2.6963218e-007            
4.6584472e-005  -2.71434e-007            
4.6784405e-005  -2.7291245e-007            
4.6984339e-005  -2.7483364e-007            
4.7184272e-005  -2.7661789e-007            
4.7384205e-005  -2.7814603e-007            
4.7584139e-005  -2.7997354e-007            
4.7784072e-005  -2.8118806e-007            
4.7984005e-005  -2.8298913e-007            
4.8183939e-005  -2.8500595e-007            
4.8383872e-005  -2.866141e-007            
4.8583805e-005  -2.8855289e-007            
4.8783739e-005  -2.8992974e-007            
4.8983672e-005  -2.9178642e-007            
4.9183605e-005  -2.939035e-007            
4.9383539e-005  -2.957185e-007            
4.9583472e-005  -2.9760751e-007            
4.9783406e-005  -2.9932501e-007            
4.9983339e-005  -3.0096871e-007            
5.0183272e-005  -3.0271078e-007            
5.0383206e-005  -3.0408711e-007            
5.0583139e-005  -3.0608373e-007            
5.0783072e-005  -3.0764044e-007            
5.0983006e-005  -3.0944923e-007            
5.1182939e-005  -3.1096917e-007            
5.1382872e-005  -3.1242877e-007            
5.1582806e-005  -3.1408596e-007            
5.1782739e-005  -3.15762e-007            
5.1982672e-005  -3.1782307e-007            
5.2182606e-005  -3.1929934e-007            
5.2382539e-005  -3.2087015e-007            
5.2582472e-005  -3.2228832e-007            
5.2782406e-005  -3.2411471e-007            
5.2982339e-005  -3.2607129e-007            
5.3182273e-005  -3.2786133e-007            
5.3382206e-005  -3.2947695e-007            
5.3582139e-005  -3.3092453e-007            
5.3782073e-005  -3.3271237e-007            
5.3982006e-005  -3.3453276e-007            
5.4181939e-005  -3.3636963e-007            
5.4381873e-005  -3.3819478e-007            
5.4581806e-005  -3.3972608e-007            
5.4781739e-005  -3.4139738e-007            
5.4981673e-005  -3.4315194e-007            
5.5181606e-005  -3.4495183e-007            
5.5381539e-005  -3.4690459e-007            
5.5581473e-005  -3.4854469e-007            
5.5781406e-005  -3.5024577e-007            
5.598134e-005  -3.5178473e-007            
5.6181273e-005  -3.5349758e-007            
5.6381206e-005  -3.553446e-007            
5.658114e-005  -3.5735611e-007            
5.6781073e-005  -3.5920879e-007            
5.6981006e-005  -3.6089838e-007            
5.718094e-005  -3.6274028e-007            
5.7380873e-005  -3.6481654e-007            
5.7580806e-005  -3.6694304e-007            
5.778074e-005  -3.6907283e-007            
5.7980673e-005  -3.7117815e-007            
5.8180606e-005  -3.7314302e-007            
5.838054e-005  -3.7523377e-007            
5.8580473e-005  -3.7735092e-007            
5.8780407e-005  -3.7960115e-007            
5.898034e-005  -3.8198795e-007            
5.9180273e-005  -3.8428373e-007            
5.9380207e-005  -3.8634727e-007            
5.958014e-005  -3.8847463e-007            
5.9780073e-005  -3.9077307e-007            
5.9980007e-005  -3.9339336e-007            
6.017994e-005  -3.9597356e-007            
6.0379873e-005  -3.9809235e-007            
6.0579807e-005  -4.0024426e-007            
6.077974e-005  -4.0247966e-007            
6.0979673e-005  -4.0488789e-007            
6.1179607e-005  -4.0757151e-007            
6.137954e-005  -4.0990796e-007            
6.1579473e-005  -4.1237037e-007            
6.1779407e-005  -4.1486873e-007            
6.197934e-005  -4.1713647e-007            
6.2179274e-005  -4.1959161e-007            
6.2379207e-005  -4.2229122e-007            
6.257914e-005  -4.2518675e-007            
6.2779074e-005  -4.2803977e-007            
6.2979007e-005  -4.3054983e-007            
6.317894e-005  -4.3313436e-007            
6.3378874e-005  -4.3597662e-007            
6.3578807e-005  -4.3896384e-007            
6.377874e-005  -4.4191059e-007            
6.3978674e-005  -4.445603e-007            
6.4178607e-005  -4.4688686e-007            
6.437854e-005  -4.4946862e-007            
6.4578474e-005  -4.5214228e-007            
6.4778407e-005  -4.5468691e-007            
6.4978341e-005  -4.5708998e-007            
6.5178274e-005  -4.5974464e-007            
6.5378207e-005  -4.6240971e-007            
6.5578141e-005  -4.6495867e-007            
6.5778074e-005  -4.6730533e-007            
6.5978007e-005  -4.6989063e-007            
6.6177941e-005  -4.726273e-007            
6.6377874e-005  -4.7535077e-007            
6.6577807e-005  -4.7771625e-007            
6.6777741e-005  -4.8013841e-007            
6.6977674e-005  -4.827723e-007            
6.7177607e-005  -4.854622e-007            
6.7377541e-005  -4.8835242e-007            
6.7577474e-005  -4.9103305e-007            
6.7777407e-005  -4.9362333e-007            
6.7977341e-005  -4.963714e-007            
6.8177274e-005  -4.9899283e-007            
6.8377208e-005  -5.0181464e-007            
6.8577141e-005  -5.0471269e-007            
6.8777074e-005  -5.0754872e-007            
6.8977008e-005  -5.103835e-007            
6.9176941e-005  -5.1303798e-007            
6.9376874e-005  -5.1573016e-007            
6.9576808e-005  -5.1868758e-007            
6.9776741e-005  -5.2151081e-007            
6.9976674e-005  -5.2432298e-007            
7.0176608e-005  -5.2700454e-007            
7.0376541e-005  -5.2940047e-007            
7.0576474e-005  -5.3206024e-007            
7.0776408e-005  -5.3483778e-007            
7.0976341e-005  -5.3769889e-007            
7.1176275e-005  -5.4068161e-007            
7.1376208e-005  -5.4329045e-007            
7.1576141e-005  -5.4587245e-007            
7.1776075e-005  -5.4856876e-007            
7.1976008e-005  -5.5145113e-007            
7.2175941e-005  -5.5443941e-007            
7.2375875e-005  -5.5749118e-007            
7.2575808e-005  -5.6035465e-007            
7.2775741e-005  -5.6328655e-007            
7.2975675e-005  -5.6591631e-007            
7.3175608e-005  -5.6897848e-007            
7.3375541e-005  -5.7213245e-007            
7.3575475e-005  -5.7542192e-007            
7.3775408e-005  -5.7835394e-007            
7.3975342e-005  -5.809394e-007            
7.4175275e-005  -5.836029e-007            
7.4375208e-005  -5.866065e-007            
7.4575142e-005  -5.8966171e-007            
7.4775075e-005  -5.9261701e-007            
7.4975008e-005  -5.9509365e-007            
7.5174942e-005  -5.9778127e-007            
7.5374875e-005  -6.0040204e-007            
7.5574808e-005  -6.0303795e-007            
7.5774742e-005  -6.057506e-007            
7.5974675e-005  -6.0848387e-007            
7.6174608e-005  -6.1117387e-007            
7.6374542e-005  -6.1350047e-007            
7.6574475e-005  -6.1579891e-007            
7.6774408e-005  -6.1800775e-007            
7.6974342e-005  -6.2084473e-007            
7.7174275e-005  -6.2336423e-007            
7.7374209e-005  -6.257067e-007            
7.7574142e-005  -6.2748465e-007            
7.7774075e-005  -6.2958671e-007            
7.7974009e-005  -6.3173289e-007            
7.8173942e-005  -6.3393124e-007            
7.8373875e-005  -6.3599809e-007            
7.8573809e-005  -6.3790594e-007            
7.8773742e-005  -6.3979732e-007            
7.8973675e-005  -6.4143633e-007            
7.9173609e-005  -6.4324773e-007            
7.9373542e-005  -6.4490382e-007            
7.9573475e-005  -6.4691562e-007            
7.9773409e-005  -6.4847488e-007            
7.9973342e-005  -6.5000087e-007            
8.0173276e-005  -6.5123814e-007            
8.0373209e-005  -6.5277593e-007            
8.0573142e-005  -6.5445365e-007            
8.0773076e-005  -6.5578221e-007            
8.0973009e-005  -6.5696753e-007            
8.1172942e-005  -6.579958e-007            
8.1372876e-005  -6.5942212e-007            
8.1572809e-005  -6.6066695e-007            
8.1772742e-005  -6.6204828e-007            
8.1972676e-005  -6.6330343e-007            
8.2172609e-005  -6.6455806e-007            
8.2372542e-005  -6.6563123e-007            
8.2572476e-005  -6.6682067e-007            
8.2772409e-005  -6.6807611e-007            
8.2972343e-005  -6.6937445e-007            
8.3172276e-005  -6.7074311e-007            
8.3372209e-005  -6.7190659e-007            
8.3572143e-005  -6.7286833e-007            
8.3772076e-005  -6.737878e-007            
8.3972009e-005  -6.747354e-007            
8.4171943e-005  -6.7570174e-007            
8.4371876e-005  -6.7653217e-007            
8.4571809e-005  -6.7733529e-007            
8.4771743e-005  -6.7798285e-007            
8.4971676e-005  -6.7882414e-007            
8.5171609e-005  -6.7964342e-007            
8.5371543e-005  -6.8044271e-007            
8.5571476e-005  -6.8117361e-007            
8.5771409e-005  -6.8180088e-007            
8.5971343e-005  -6.821844e-007            
8.6171276e-005  -6.8284387e-007            
8.637121e-005  -6.8369037e-007            
8.6571143e-005  -6.8422474e-007            
8.6771076e-005  -6.8512453e-007            
8.697101e-005  -6.8586378e-007            
8.7170943e-005  -6.8635317e-007            
8.7370876e-005  -6.8670241e-007            
8.757081e-005  -6.8734645e-007            
8.7770743e-005  -6.8813772e-007            
8.7970676e-005  -6.8877457e-007            
8.817061e-005  -6.8959664e-007            
8.8370543e-005  -6.9035216e-007            
8.8570476e-005  -6.9097147e-007            
8.877041e-005  -6.9152317e-007            
8.8970343e-005  -6.9230877e-007            
8.9170277e-005  -6.9328567e-007            
8.937021e-005  -6.9383431e-007            
8.9570143e-005  -6.9464876e-007            
8.9770077e-005  -6.9531221e-007            
8.997001e-005  -6.9593258e-007            
9.0169943e-005  -6.965793e-007            
9.0369877e-005  -6.9744833e-007            
9.056981e-005  -6.9835805e-007            
9.0769743e-005  -6.9899255e-007            
