Surface Profile             
x       y           
[m]     [m]         
0  -6.1133368e-010            
1.9993336e-007  -7.4818613e-010            
3.9986671e-007  -1.1550711e-009            
5.9980007e-007  -1.4370272e-009            
7.9973342e-007  -1.7866393e-009            
9.9966678e-007  -2.0147611e-009            
1.1996001e-006  -2.5421793e-009            
1.3995335e-006  -2.8318147e-009            
1.5994668e-006  -3.0875384e-009            
1.7994002e-006  -3.3730976e-009            
1.9993336e-006  -3.6728302e-009            
2.1992669e-006  -4.2029289e-009            
2.3992003e-006  -5.0120283e-009            
2.5991336e-006  -5.5047714e-009            
2.799067e-006  -5.8033078e-009            
2.9990003e-006  -6.1813619e-009            
3.1989337e-006  -6.6559562e-009            
3.398867e-006  -7.5053764e-009            
3.5988004e-006  -8.41959e-009            
3.7987338e-006  -9.2468822e-009            
3.9986671e-006  -9.7814298e-009            
4.1986005e-006  -1.0638443e-008            
4.3985338e-006  -1.1655019e-008            
4.5984672e-006  -1.2654632e-008            
4.7984005e-006  -1.3390278e-008            
4.9983339e-006  -1.4099056e-008            
5.1982672e-006  -1.4794554e-008            
5.3982006e-006  -1.5523613e-008            
5.598134e-006  -1.636252e-008            
5.7980673e-006  -1.7157333e-008            
5.9980007e-006  -1.8018637e-008            
6.197934e-006  -1.8895681e-008            
6.3978674e-006  -1.9419161e-008            
6.5978007e-006  -1.9843702e-008            
6.7977341e-006  -2.0366583e-008            
6.9976674e-006  -2.122861e-008            
7.1976008e-006  -2.2037197e-008            
7.3975342e-006  -2.2731838e-008            
7.5974675e-006  -2.3217028e-008            
7.7974009e-006  -2.3582158e-008            
7.9973342e-006  -2.4014759e-008            
8.1972676e-006  -2.4730215e-008            
8.3972009e-006  -2.5478787e-008            
8.5971343e-006  -2.6297426e-008            
8.7970676e-006  -2.6805991e-008            
8.997001e-006  -2.7265983e-008            
9.1969344e-006  -2.7910287e-008            
9.3968677e-006  -2.8697468e-008            
9.5968011e-006  -2.9845218e-008            
9.7967344e-006  -3.0735227e-008            
9.9966678e-006  -3.1330653e-008            
1.0196601e-005  -3.1954295e-008            
1.0396534e-005  -3.2625329e-008            
1.0596468e-005  -3.3552997e-008            
1.0796401e-005  -3.4725356e-008            
1.0996335e-005  -3.5754843e-008            
1.1196268e-005  -3.6587657e-008            
1.1396201e-005  -3.7217069e-008            
1.1596135e-005  -3.7848581e-008            
1.1796068e-005  -3.8803356e-008            
1.1996001e-005  -4.0071646e-008            
1.2195935e-005  -4.1311946e-008            
1.2395868e-005  -4.2376124e-008            
1.2595801e-005  -4.295963e-008            
1.2795735e-005  -4.3742538e-008            
1.2995668e-005  -4.4795042e-008            
1.3195601e-005  -4.6140404e-008            
1.3395535e-005  -4.7273275e-008            
1.3595468e-005  -4.8130844e-008            
1.3795402e-005  -4.9005886e-008            
1.3995335e-005  -4.9916118e-008            
1.4195268e-005  -5.1049062e-008            
1.4395202e-005  -5.2330089e-008            
1.4595135e-005  -5.360455e-008            
1.4795068e-005  -5.4738635e-008            
1.4995002e-005  -5.5572534e-008            
1.5194935e-005  -5.6307022e-008            
1.5394868e-005  -5.7316729e-008            
1.5594802e-005  -5.8622813e-008            
1.5794735e-005  -5.9878218e-008            
1.5994668e-005  -6.0971952e-008            
1.6194602e-005  -6.1679297e-008            
1.6394535e-005  -6.2647401e-008            
1.6594469e-005  -6.3602243e-008            
1.6794402e-005  -6.4973075e-008            
1.6994335e-005  -6.6238701e-008            
1.7194269e-005  -6.7491602e-008            
1.7394202e-005  -6.8447029e-008            
1.7594135e-005  -6.9548695e-008            
1.7794069e-005  -7.0518285e-008            
1.7994002e-005  -7.1810878e-008            
1.8193935e-005  -7.3327066e-008            
1.8393869e-005  -7.4567433e-008            
1.8593802e-005  -7.5631148e-008            
1.8793735e-005  -7.6699321e-008            
1.8993669e-005  -7.7801558e-008            
1.9193602e-005  -7.9341446e-008            
1.9393535e-005  -8.0627355e-008            
1.9593469e-005  -8.1622678e-008            
1.9793402e-005  -8.2800688e-008            
1.9993336e-005  -8.3933187e-008            
2.0193269e-005  -8.5036073e-008            
2.0393202e-005  -8.6250487e-008            
2.0593136e-005  -8.7503653e-008            
2.0793069e-005  -8.8805208e-008            
2.0993002e-005  -9.025387e-008            
2.1192936e-005  -9.1418057e-008            
2.1392869e-005  -9.2340557e-008            
2.1592802e-005  -9.3524732e-008            
2.1792736e-005  -9.5040443e-008            
2.1992669e-005  -9.6611233e-008            
2.2192602e-005  -9.8132097e-008            
2.2392536e-005  -9.9161199e-008            
2.2592469e-005  -1.0040427e-007            
2.2792403e-005  -1.0195588e-007            
2.2992336e-005  -1.035037e-007            
2.3192269e-005  -1.0507765e-007            
2.3392203e-005  -1.0648254e-007            
2.3592136e-005  -1.0757396e-007            
2.3792069e-005  -1.0874017e-007            
2.3992003e-005  -1.10073e-007            
2.4191936e-005  -1.1135004e-007            
2.4391869e-005  -1.1257952e-007            
2.4591803e-005  -1.1386418e-007            
2.4791736e-005  -1.1483209e-007            
2.4991669e-005  -1.1576242e-007            
2.5191603e-005  -1.1675251e-007            
2.5391536e-005  -1.1794098e-007            
2.5591469e-005  -1.1917398e-007            
2.5791403e-005  -1.2035406e-007            
2.5991336e-005  -1.2124874e-007            
2.619127e-005  -1.2223094e-007            
2.6391203e-005  -1.2332396e-007            
2.6591136e-005  -1.2453141e-007            
2.679107e-005  -1.2569388e-007            
2.6991003e-005  -1.2672591e-007            
2.7190936e-005  -1.2772071e-007            
2.739087e-005  -1.2850769e-007            
2.7590803e-005  -1.2948008e-007            
2.7790736e-005  -1.3059436e-007            
2.799067e-005  -1.3175083e-007            
2.8190603e-005  -1.3298246e-007            
2.8390536e-005  -1.3377207e-007            
2.859047e-005  -1.3457055e-007            
2.8790403e-005  -1.3554449e-007            
2.8990337e-005  -1.3677621e-007            
2.919027e-005  -1.3808831e-007            
2.9390203e-005  -1.3922373e-007            
2.9590137e-005  -1.4014603e-007            
2.979007e-005  -1.4117981e-007            
2.9990003e-005  -1.4235959e-007            
3.0189937e-005  -1.4360131e-007            
3.038987e-005  -1.4465008e-007            
3.0589803e-005  -1.4588115e-007            
3.0789737e-005  -1.4696021e-007            
3.098967e-005  -1.482025e-007            
3.1189603e-005  -1.4959461e-007            
3.1389537e-005  -1.5079359e-007            
3.158947e-005  -1.5206733e-007            
3.1789404e-005  -1.5346282e-007            
3.1989337e-005  -1.5446382e-007            
3.218927e-005  -1.5551731e-007            
3.2389204e-005  -1.5661807e-007            
3.2589137e-005  -1.5802961e-007            
3.278907e-005  -1.5936682e-007            
3.2989004e-005  -1.6057982e-007            
3.3188937e-005  -1.6147299e-007            
3.338887e-005  -1.6254373e-007            
3.3588804e-005  -1.6369845e-007            
3.3788737e-005  -1.6502256e-007            
3.398867e-005  -1.6617584e-007            
3.4188604e-005  -1.6720376e-007            
3.4388537e-005  -1.6821414e-007            
3.458847e-005  -1.693524e-007            
3.4788404e-005  -1.7038586e-007            
3.4988337e-005  -1.7150957e-007            
3.5188271e-005  -1.7252691e-007            
3.5388204e-005  -1.7348966e-007            
3.5588137e-005  -1.7435478e-007            
3.5788071e-005  -1.7529619e-007            
3.5988004e-005  -1.7624818e-007            
3.6187937e-005  -1.7726109e-007            
3.6387871e-005  -1.781508e-007            
3.6587804e-005  -1.7903724e-007            
3.6787737e-005  -1.7969473e-007            
3.6987671e-005  -1.8071411e-007            
3.7187604e-005  -1.8168071e-007            
3.7387537e-005  -1.8275467e-007            
3.7587471e-005  -1.8379278e-007            
3.7787404e-005  -1.8479786e-007            
3.7987338e-005  -1.8573582e-007            
3.8187271e-005  -1.8657584e-007            
3.8387204e-005  -1.8762691e-007            
3.8587138e-005  -1.8881423e-007            
3.8787071e-005  -1.8986303e-007            
3.8987004e-005  -1.9086684e-007            
3.9186938e-005  -1.9168625e-007            
3.9386871e-005  -1.9246289e-007            
3.9586804e-005  -1.9349494e-007            
3.9786738e-005  -1.9462521e-007            
3.9986671e-005  -1.9548739e-007            
4.0186604e-005  -1.9647565e-007            
4.0386538e-005  -1.9735124e-007            
4.0586471e-005  -1.984268e-007            
4.0786405e-005  -1.9969408e-007            
4.0986338e-005  -2.0089565e-007            
4.1186271e-005  -2.0196662e-007            
4.1386205e-005  -2.0295178e-007            
4.1586138e-005  -2.0392732e-007            
4.1786071e-005  -2.0514787e-007            
4.1986005e-005  -2.0646875e-007            
4.2185938e-005  -2.0773798e-007            
4.2385871e-005  -2.0880953e-007            
4.2585805e-005  -2.0988232e-007            
4.2785738e-005  -2.109699e-007            
4.2985671e-005  -2.1209965e-007            
4.3185605e-005  -2.1339128e-007            
4.3385538e-005  -2.1490055e-007            
4.3585471e-005  -2.1620412e-007            
4.3785405e-005  -2.1766123e-007            
4.3985338e-005  -2.1897479e-007            
4.4185272e-005  -2.2043039e-007            
4.4385205e-005  -2.219772e-007            
4.4585138e-005  -2.2361577e-007            
4.4785072e-005  -2.2528e-007            
4.4985005e-005  -2.2678781e-007            
4.5184938e-005  -2.2825399e-007            
4.5384872e-005  -2.2978512e-007            
4.5584805e-005  -2.3151042e-007            
4.5784738e-005  -2.3331896e-007            
4.5984672e-005  -2.3485268e-007            
4.6184605e-005  -2.3634126e-007            
4.6384538e-005  -2.3795306e-007            
4.6584472e-005  -2.3970703e-007            
4.6784405e-005  -2.4125778e-007            
4.6984339e-005  -2.4282226e-007            
4.7184272e-005  -2.444173e-007            
4.7384205e-005  -2.4628212e-007            
4.7584139e-005  -2.4780757e-007            
4.7784072e-005  -2.4955978e-007            
4.7984005e-005  -2.5104787e-007            
4.8183939e-005  -2.5266234e-007            
4.8383872e-005  -2.5444256e-007            
4.8583805e-005  -2.5620313e-007            
4.8783739e-005  -2.5786969e-007            
4.8983672e-005  -2.5927916e-007            
4.9183605e-005  -2.6087724e-007            
4.9383539e-005  -2.6244267e-007            
4.9583472e-005  -2.6416665e-007            
4.9783406e-005  -2.6578097e-007            
4.9983339e-005  -2.6733152e-007            
5.0183272e-005  -2.6885113e-007            
5.0383206e-005  -2.7016346e-007            
5.0583139e-005  -2.716855e-007            
5.0783072e-005  -2.7317438e-007            
5.0983006e-005  -2.7465768e-007            
5.1182939e-005  -2.7615507e-007            
5.1382872e-005  -2.7739177e-007            
5.1582806e-005  -2.788874e-007            
5.1782739e-005  -2.8035246e-007            
5.1982672e-005  -2.817543e-007            
5.2182606e-005  -2.8331702e-007            
5.2382539e-005  -2.8480089e-007            
5.2582472e-005  -2.8615098e-007            
5.2782406e-005  -2.8757384e-007            
5.2982339e-005  -2.8895769e-007            
5.3182273e-005  -2.9063059e-007            
5.3382206e-005  -2.9231769e-007            
5.3582139e-005  -2.938253e-007            
5.3782073e-005  -2.9514459e-007            
5.3982006e-005  -2.9640457e-007            
5.4181939e-005  -2.9778961e-007            
5.4381873e-005  -2.9929415e-007            
5.4581806e-005  -3.0091382e-007            
5.4781739e-005  -3.0231107e-007            
5.4981673e-005  -3.0366331e-007            
5.5181606e-005  -3.0505311e-007            
5.5381539e-005  -3.0657647e-007            
5.5581473e-005  -3.0825415e-007            
5.5781406e-005  -3.0987259e-007            
5.598134e-005  -3.1145307e-007            
5.6181273e-005  -3.1288028e-007            
5.6381206e-005  -3.145129e-007            
5.658114e-005  -3.16264e-007            
5.6781073e-005  -3.1790468e-007            
5.6981006e-005  -3.194491e-007            
5.718094e-005  -3.2109816e-007            
5.7380873e-005  -3.2310361e-007            
5.7580806e-005  -3.2507007e-007            
5.778074e-005  -3.2700835e-007            
5.7980673e-005  -3.2906595e-007            
5.8180606e-005  -3.312701e-007            
5.838054e-005  -3.3352796e-007            
5.8580473e-005  -3.3585023e-007            
5.8780407e-005  -3.3787003e-007            
5.898034e-005  -3.4009631e-007            
5.9180273e-005  -3.4242828e-007            
5.9380207e-005  -3.4471141e-007            
5.958014e-005  -3.4709068e-007            
5.9780073e-005  -3.4919527e-007            
5.9980007e-005  -3.5150413e-007            
6.017994e-005  -3.5395296e-007            
6.0379873e-005  -3.5619865e-007            
6.0579807e-005  -3.5849244e-007            
6.077974e-005  -3.6053213e-007            
6.0979673e-005  -3.628104e-007            
6.1179607e-005  -3.651451e-007            
6.137954e-005  -3.6749094e-007            
6.1579473e-005  -3.6981889e-007            
6.1779407e-005  -3.7216944e-007            
6.197934e-005  -3.7451105e-007            
6.2179274e-005  -3.7702236e-007            
6.2379207e-005  -3.7936125e-007            
6.257914e-005  -3.8165357e-007            
6.2779074e-005  -3.8398712e-007            
6.2979007e-005  -3.8618936e-007            
6.317894e-005  -3.8855518e-007            
6.3378874e-005  -3.9074687e-007            
6.3578807e-005  -3.9304797e-007            
6.377874e-005  -3.9547824e-007            
6.3978674e-005  -3.977546e-007            
6.4178607e-005  -3.9999424e-007            
6.437854e-005  -4.0235609e-007            
6.4578474e-005  -4.0466494e-007            
6.4778407e-005  -4.0700154e-007            
6.4978341e-005  -4.0951002e-007            
6.5178274e-005  -4.119038e-007            
6.5378207e-005  -4.1417103e-007            
6.5578141e-005  -4.1647213e-007            
6.5778074e-005  -4.1885447e-007            
6.5978007e-005  -4.2130245e-007            
6.6177941e-005  -4.2361285e-007            
6.6377874e-005  -4.2600843e-007            
6.6577807e-005  -4.2837703e-007            
6.6777741e-005  -4.3079654e-007            
6.6977674e-005  -4.3323616e-007            
6.7177607e-005  -4.357035e-007            
6.7377541e-005  -4.3833804e-007            
6.7577474e-005  -4.4099318e-007            
6.7777407e-005  -4.4350341e-007            
6.7977341e-005  -4.4598016e-007            
6.8177274e-005  -4.4867865e-007            
6.8377208e-005  -4.5156067e-007            
6.8577141e-005  -4.543494e-007            
6.8777074e-005  -4.5696209e-007            
6.8977008e-005  -4.5969193e-007            
6.9176941e-005  -4.6250846e-007            
6.9376874e-005  -4.6539326e-007            
6.9576808e-005  -4.6826026e-007            
6.9776741e-005  -4.7099862e-007            
6.9976674e-005  -4.7393783e-007            
7.0176608e-005  -4.7679588e-007            
7.0376541e-005  -4.7947412e-007            
7.0576474e-005  -4.8221944e-007            
7.0776408e-005  -4.8510963e-007            
7.0976341e-005  -4.8811731e-007            
7.1176275e-005  -4.9109501e-007            
7.1376208e-005  -4.9388994e-007            
7.1576141e-005  -4.9679104e-007            
7.1776075e-005  -4.9991473e-007            
7.1976008e-005  -5.0313286e-007            
7.2175941e-005  -5.0638222e-007            
7.2375875e-005  -5.0919677e-007            
7.2575808e-005  -5.1212947e-007            
7.2775741e-005  -5.1528258e-007            
7.2975675e-005  -5.1838024e-007            
7.3175608e-005  -5.2136297e-007            
7.3375541e-005  -5.2431458e-007            
7.3575475e-005  -5.2716001e-007            
7.3775408e-005  -5.3013855e-007            
7.3975342e-005  -5.3283085e-007            
7.4175275e-005  -5.3537686e-007            
7.4375208e-005  -5.3804449e-007            
7.4575142e-005  -5.4054612e-007            
7.4775075e-005  -5.4304007e-007            
7.4975008e-005  -5.4549822e-007            
7.5174942e-005  -5.4769662e-007            
7.5374875e-005  -5.4979899e-007            
7.5574808e-005  -5.5200369e-007            
7.5774742e-005  -5.5417461e-007            
7.5974675e-005  -5.5627669e-007            
7.6174608e-005  -5.5832511e-007            
7.6374542e-005  -5.6022552e-007            
7.6574475e-005  -5.6216054e-007            
7.6774408e-005  -5.6406514e-007            
7.6974342e-005  -5.6586835e-007            
7.7174275e-005  -5.6789437e-007            
7.7374209e-005  -5.6975645e-007            
7.7574142e-005  -5.7146828e-007            
7.7774075e-005  -5.7314474e-007            
7.7974009e-005  -5.7488808e-007            
7.8173942e-005  -5.7645313e-007            
7.8373875e-005  -5.7815714e-007            
7.8573809e-005  -5.7975435e-007            
7.8773742e-005  -5.8129206e-007            
7.8973675e-005  -5.8277167e-007            
7.9173609e-005  -5.8411554e-007            
7.9373542e-005  -5.8532987e-007            
7.9573475e-005  -5.8685487e-007            
7.9773409e-005  -5.8806517e-007            
7.9973342e-005  -5.8936118e-007            
8.0173276e-005  -5.9064207e-007            
8.0373209e-005  -5.9165692e-007            
8.0573142e-005  -5.92807e-007            
8.0773076e-005  -5.9385728e-007            
8.0973009e-005  -5.9491815e-007            
8.1172942e-005  -5.9615552e-007            
8.1372876e-005  -5.9707094e-007            
8.1572809e-005  -5.9793921e-007            
8.1772742e-005  -5.9903582e-007            
8.1972676e-005  -5.9998529e-007            
8.2172609e-005  -6.0112895e-007            
8.2372542e-005  -6.0195025e-007            
8.2572476e-005  -6.0297802e-007            
8.2772409e-005  -6.0387325e-007            
8.2972343e-005  -6.0498273e-007            
8.3172276e-005  -6.0585362e-007            
8.3372209e-005  -6.066688e-007            
8.3572143e-005  -6.0741143e-007            
8.3772076e-005  -6.0835181e-007            
8.3972009e-005  -6.0907093e-007            
8.4171943e-005  -6.0965683e-007            
8.4371876e-005  -6.1014161e-007            
8.4571809e-005  -6.1090115e-007            
8.4771743e-005  -6.1168322e-007            
8.4971676e-005  -6.1217477e-007            
8.5171609e-005  -6.1278498e-007            
8.5371543e-005  -6.1327008e-007            
8.5571476e-005  -6.1393905e-007            
8.5771409e-005  -6.1463052e-007            
8.5971343e-005  -6.1502905e-007            
8.6171276e-005  -6.1562357e-007            
8.637121e-005  -6.1635027e-007            
8.6571143e-005  -6.1713973e-007            
8.6771076e-005  -6.1780008e-007            
8.697101e-005  -6.1828822e-007            
8.7170943e-005  -6.1888589e-007            
8.7370876e-005  -6.1972275e-007            
8.757081e-005  -6.2036115e-007            
8.7770743e-005  -6.2083976e-007            
8.7970676e-005  -6.2140754e-007            
8.817061e-005  -6.2197874e-007            
8.8370543e-005  -6.2276613e-007            
8.8570476e-005  -6.2352147e-007            
8.877041e-005  -6.242256e-007            
8.8970343e-005  -6.2496405e-007            
8.9170277e-005  -6.2556255e-007            
8.937021e-005  -6.2619316e-007            
8.9570143e-005  -6.2690595e-007            
8.9770077e-005  -6.2771839e-007            
8.997001e-005  -6.2853088e-007            
9.0169943e-005  -6.2923923e-007            
9.0369877e-005  -6.2994629e-007            
9.056981e-005  -6.307343e-007            
9.0769743e-005  -6.3161631e-007            
