Surface Profile             
x       y           
[m]     [m]         
0  -3.4123802e-009            
1.9993336e-007  -4.1779684e-009            
3.9986671e-007  -4.5742791e-009            
5.9980007e-007  -5.0861584e-009            
7.9973342e-007  -5.2805743e-009            
9.9966678e-007  -5.6917195e-009            
1.1996001e-006  -6.1791386e-009            
1.3995335e-006  -6.5896683e-009            
1.5994668e-006  -6.9754616e-009            
1.7994002e-006  -7.3190793e-009            
1.9993336e-006  -7.9088136e-009            
2.1992669e-006  -8.3126083e-009            
2.3992003e-006  -8.8663103e-009            
2.5991336e-006  -9.4964592e-009            
2.799067e-006  -1.0146583e-008            
2.9990003e-006  -1.0794618e-008            
3.1989337e-006  -1.1327311e-008            
3.398867e-006  -1.1654552e-008            
3.5988004e-006  -1.2194567e-008            
3.7987338e-006  -1.295009e-008            
3.9986671e-006  -1.35211e-008            
4.1986005e-006  -1.4023805e-008            
4.3985338e-006  -1.4353518e-008            
4.5984672e-006  -1.4868423e-008            
4.7984005e-006  -1.5548763e-008            
4.9983339e-006  -1.6075199e-008            
5.1982672e-006  -1.657639e-008            
5.3982006e-006  -1.6856624e-008            
5.598134e-006  -1.7344434e-008            
5.7980673e-006  -1.7799187e-008            
5.9980007e-006  -1.8331251e-008            
6.197934e-006  -1.8857992e-008            
6.3978674e-006  -1.9311682e-008            
6.5978007e-006  -1.9687157e-008            
6.7977341e-006  -2.0005738e-008            
6.9976674e-006  -2.0497839e-008            
7.1976008e-006  -2.0897206e-008            
7.3975342e-006  -2.1536518e-008            
7.5974675e-006  -2.1888485e-008            
7.7974009e-006  -2.229784e-008            
7.9973342e-006  -2.2619741e-008            
8.1972676e-006  -2.3071204e-008            
8.3972009e-006  -2.3698901e-008            
8.5971343e-006  -2.4140707e-008            
8.7970676e-006  -2.4592922e-008            
8.997001e-006  -2.4928914e-008            
9.1969344e-006  -2.5216417e-008            
9.3968677e-006  -2.5623486e-008            
9.5968011e-006  -2.6005395e-008            
9.7967344e-006  -2.6362343e-008            
9.9966678e-006  -2.6920848e-008            
1.0196601e-005  -2.7115301e-008            
1.0396534e-005  -2.7448682e-008            
1.0596468e-005  -2.7939039e-008            
1.0796401e-005  -2.8349978e-008            
1.0996335e-005  -2.902629e-008            
1.1196268e-005  -2.9321725e-008            
1.1396201e-005  -2.9768672e-008            
1.1596135e-005  -3.0336528e-008            
1.1796068e-005  -3.0811552e-008            
1.1996001e-005  -3.1561245e-008            
1.2195935e-005  -3.2181135e-008            
1.2395868e-005  -3.2907289e-008            
1.2595801e-005  -3.3584818e-008            
1.2795735e-005  -3.4143707e-008            
1.2995668e-005  -3.4570893e-008            
1.3195601e-005  -3.4997108e-008            
1.3395535e-005  -3.5502884e-008            
1.3595468e-005  -3.6057161e-008            
1.3795402e-005  -3.6551659e-008            
1.3995335e-005  -3.7057189e-008            
1.4195268e-005  -3.759599e-008            
1.4395202e-005  -3.8177928e-008            
1.4595135e-005  -3.8718749e-008            
1.4795068e-005  -3.9112539e-008            
1.4995002e-005  -3.9655859e-008            
1.5194935e-005  -4.0065477e-008            
1.5394868e-005  -4.0670175e-008            
1.5594802e-005  -4.1266494e-008            
1.5794735e-005  -4.1769044e-008            
1.5994668e-005  -4.2468966e-008            
1.6194602e-005  -4.3031154e-008            
1.6394535e-005  -4.3617754e-008            
1.6594469e-005  -4.400451e-008            
1.6794402e-005  -4.4639528e-008            
1.6994335e-005  -4.5209816e-008            
1.7194269e-005  -4.585451e-008            
1.7394202e-005  -4.6401563e-008            
1.7594135e-005  -4.686837e-008            
1.7794069e-005  -4.7686764e-008            
1.7994002e-005  -4.8233851e-008            
1.8193935e-005  -4.8689512e-008            
1.8393869e-005  -4.9323215e-008            
1.8593802e-005  -5.0072847e-008            
1.8793735e-005  -5.0823263e-008            
1.8993669e-005  -5.1331782e-008            
1.9193602e-005  -5.1788061e-008            
1.9393535e-005  -5.2452095e-008            
1.9593469e-005  -5.3170563e-008            
1.9793402e-005  -5.3980425e-008            
1.9993336e-005  -5.4762783e-008            
2.0193269e-005  -5.5393764e-008            
2.0393202e-005  -5.631242e-008            
2.0593136e-005  -5.7141749e-008            
2.0793069e-005  -5.8035416e-008            
2.0993002e-005  -5.8857807e-008            
2.1192936e-005  -5.9734803e-008            
2.1392869e-005  -6.0675905e-008            
2.1592802e-005  -6.1403159e-008            
2.1792736e-005  -6.221668e-008            
2.1992669e-005  -6.3084143e-008            
2.2192602e-005  -6.4078019e-008            
2.2392536e-005  -6.5041762e-008            
2.2592469e-005  -6.5769912e-008            
2.2792403e-005  -6.6416748e-008            
2.2992336e-005  -6.7365917e-008            
2.3192269e-005  -6.8403805e-008            
2.3392203e-005  -6.9103933e-008            
2.3592136e-005  -6.9832633e-008            
2.3792069e-005  -7.058479e-008            
2.3992003e-005  -7.1436528e-008            
2.4191936e-005  -7.2391253e-008            
2.4391869e-005  -7.3262143e-008            
2.4591803e-005  -7.4334983e-008            
2.4791736e-005  -7.5311488e-008            
2.4991669e-005  -7.6320894e-008            
2.5191603e-005  -7.7186029e-008            
2.5391536e-005  -7.8197804e-008            
2.5591469e-005  -7.9472109e-008            
2.5791403e-005  -8.0868139e-008            
2.5991336e-005  -8.1870607e-008            
2.619127e-005  -8.2895449e-008            
2.6391203e-005  -8.3916726e-008            
2.6591136e-005  -8.5191199e-008            
2.679107e-005  -8.6638715e-008            
2.6991003e-005  -8.7532881e-008            
2.7190936e-005  -8.8374446e-008            
2.739087e-005  -8.9429102e-008            
2.7590803e-005  -9.0720156e-008            
2.7790736e-005  -9.2050096e-008            
2.799067e-005  -9.3122988e-008            
2.8190603e-005  -9.424227e-008            
2.8390536e-005  -9.5453752e-008            
2.859047e-005  -9.6646958e-008            
2.8790403e-005  -9.7643928e-008            
2.8990337e-005  -9.8827981e-008            
2.919027e-005  -1.0015628e-007            
2.9390203e-005  -1.0154345e-007            
2.9590137e-005  -1.0237863e-007            
2.979007e-005  -1.0320349e-007            
2.9990003e-005  -1.0441348e-007            
3.0189937e-005  -1.0600289e-007            
3.038987e-005  -1.0743789e-007            
3.0589803e-005  -1.0843702e-007            
3.0789737e-005  -1.0936655e-007            
3.098967e-005  -1.1055359e-007            
3.1189603e-005  -1.1208438e-007            
3.1389537e-005  -1.1347637e-007            
3.158947e-005  -1.1470446e-007            
3.1789404e-005  -1.1603111e-007            
3.1989337e-005  -1.1740586e-007            
3.218927e-005  -1.1866073e-007            
3.2389204e-005  -1.201542e-007            
3.2589137e-005  -1.2166999e-007            
3.278907e-005  -1.2319864e-007            
3.2989004e-005  -1.2480071e-007            
3.3188937e-005  -1.2595661e-007            
3.338887e-005  -1.2719273e-007            
3.3588804e-005  -1.2877715e-007            
3.3788737e-005  -1.3041675e-007            
3.398867e-005  -1.3184271e-007            
3.4188604e-005  -1.3290516e-007            
3.4388537e-005  -1.3411196e-007            
3.458847e-005  -1.3535282e-007            
3.4788404e-005  -1.3663897e-007            
3.4988337e-005  -1.376627e-007            
3.5188271e-005  -1.3891806e-007            
3.5388204e-005  -1.3996807e-007            
3.5588137e-005  -1.4113383e-007            
3.5788071e-005  -1.4218803e-007            
3.5988004e-005  -1.432394e-007            
3.6187937e-005  -1.4437985e-007            
3.6387871e-005  -1.4551379e-007            
3.6587804e-005  -1.4669992e-007            
3.6787737e-005  -1.4752827e-007            
3.6987671e-005  -1.482897e-007            
3.7187604e-005  -1.4918628e-007            
3.7387537e-005  -1.5019719e-007            
3.7587471e-005  -1.5119754e-007            
3.7787404e-005  -1.5197191e-007            
3.7987338e-005  -1.5267293e-007            
3.8187271e-005  -1.5336655e-007            
3.8387204e-005  -1.5419373e-007            
3.8587138e-005  -1.5504964e-007            
3.8787071e-005  -1.5578946e-007            
3.8987004e-005  -1.5646133e-007            
3.9186938e-005  -1.5718363e-007            
3.9386871e-005  -1.5805907e-007            
3.9586804e-005  -1.5858474e-007            
3.9786738e-005  -1.5949903e-007            
3.9986671e-005  -1.6043915e-007            
4.0186604e-005  -1.6129983e-007            
4.0386538e-005  -1.6207785e-007            
4.0586471e-005  -1.625755e-007            
4.0786405e-005  -1.6326659e-007            
4.0986338e-005  -1.641957e-007            
4.1186271e-005  -1.6502663e-007            
4.1386205e-005  -1.6595769e-007            
4.1586138e-005  -1.6679744e-007            
4.1786071e-005  -1.6756348e-007            
4.1986005e-005  -1.6841265e-007            
4.2185938e-005  -1.6926049e-007            
4.2385871e-005  -1.703705e-007            
4.2585805e-005  -1.7141246e-007            
4.2785738e-005  -1.7230394e-007            
4.2985671e-005  -1.7297007e-007            
4.3185605e-005  -1.7363411e-007            
4.3385538e-005  -1.7463616e-007            
4.3585471e-005  -1.7554001e-007            
4.3785405e-005  -1.7657936e-007            
4.3985338e-005  -1.7729313e-007            
4.4185272e-005  -1.7786655e-007            
4.4385205e-005  -1.7880324e-007            
4.4585138e-005  -1.7977841e-007            
4.4785072e-005  -1.8074676e-007            
4.4985005e-005  -1.816097e-007            
4.5184938e-005  -1.8256646e-007            
4.5384872e-005  -1.8329574e-007            
4.5584805e-005  -1.8428673e-007            
4.5784738e-005  -1.8505437e-007            
4.5984672e-005  -1.8609239e-007            
4.6184605e-005  -1.8731523e-007            
4.6384538e-005  -1.8836398e-007            
4.6584472e-005  -1.890649e-007            
4.6784405e-005  -1.8969885e-007            
4.6984339e-005  -1.9051955e-007            
4.7184272e-005  -1.9186211e-007            
4.7384205e-005  -1.9292288e-007            
4.7584139e-005  -1.9386101e-007            
4.7784072e-005  -1.9460172e-007            
4.7984005e-005  -1.9523281e-007            
4.8183939e-005  -1.960779e-007            
4.8383872e-005  -1.9715748e-007            
4.8583805e-005  -1.9809651e-007            
4.8783739e-005  -1.9894254e-007            
4.8983672e-005  -1.9932809e-007            
4.9183605e-005  -1.9992502e-007            
4.9383539e-005  -2.0068205e-007            
4.9583472e-005  -2.0155188e-007            
4.9783406e-005  -2.0245444e-007            
4.9983339e-005  -2.0304755e-007            
5.0183272e-005  -2.0377268e-007            
5.0383206e-005  -2.0437764e-007            
5.0583139e-005  -2.0533159e-007            
5.0783072e-005  -2.0615885e-007            
5.0983006e-005  -2.0689693e-007            
5.1182939e-005  -2.0773292e-007            
5.1382872e-005  -2.0823815e-007            
5.1582806e-005  -2.086204e-007            
5.1782739e-005  -2.0926163e-007            
5.1982672e-005  -2.0987637e-007            
5.2182606e-005  -2.1046567e-007            
5.2382539e-005  -2.1102276e-007            
5.2582472e-005  -2.1115819e-007            
5.2782406e-005  -2.1151691e-007            
5.2982339e-005  -2.1207883e-007            
5.3182273e-005  -2.1264395e-007            
5.3382206e-005  -2.1324237e-007            
5.3582139e-005  -2.1370068e-007            
5.3782073e-005  -2.1409909e-007            
5.3982006e-005  -2.1467989e-007            
5.4181939e-005  -2.1534092e-007            
5.4381873e-005  -2.1602744e-007            
5.4581806e-005  -2.1663889e-007            
5.4781739e-005  -2.1710575e-007            
5.4981673e-005  -2.1763074e-007            
5.5181606e-005  -2.1825328e-007            
5.5381539e-005  -2.1879345e-007            
5.5581473e-005  -2.1957211e-007            
5.5781406e-005  -2.2019e-007            
5.598134e-005  -2.207211e-007            
5.6181273e-005  -2.212106e-007            
5.6381206e-005  -2.2167992e-007            
5.658114e-005  -2.2221457e-007            
5.6781073e-005  -2.227989e-007            
5.6981006e-005  -2.2334115e-007            
5.718094e-005  -2.2386861e-007            
5.7380873e-005  -2.242991e-007            
5.7580806e-005  -2.2471291e-007            
5.778074e-005  -2.2529501e-007            
5.7980673e-005  -2.2584977e-007            
5.8180606e-005  -2.26453e-007            
5.838054e-005  -2.2686725e-007            
5.8580473e-005  -2.2697796e-007            
5.8780407e-005  -2.271351e-007            
5.898034e-005  -2.2753509e-007            
5.9180273e-005  -2.2814301e-007            
5.9380207e-005  -2.2859858e-007            
5.958014e-005  -2.2887378e-007            
5.9780073e-005  -2.2911539e-007            
5.9980007e-005  -2.2929948e-007            
6.017994e-005  -2.2973932e-007            
6.0379873e-005  -2.3021931e-007            
6.0579807e-005  -2.304541e-007            
6.077974e-005  -2.3078775e-007            
6.0979673e-005  -2.3112252e-007            
6.1179607e-005  -2.3131388e-007            
6.137954e-005  -2.315331e-007            
6.1579473e-005  -2.3177552e-007            
6.1779407e-005  -2.3218364e-007            
6.197934e-005  -2.3255839e-007            
6.2179274e-005  -2.3279009e-007            
6.2379207e-005  -2.3273146e-007            
6.257914e-005  -2.3274487e-007            
6.2779074e-005  -2.3297613e-007            
6.2979007e-005  -2.3330893e-007            
6.317894e-005  -2.3332691e-007            
6.3378874e-005  -2.3316995e-007            
6.3578807e-005  -2.3314327e-007            
6.377874e-005  -2.3334836e-007            
6.3978674e-005  -2.3348809e-007            
6.4178607e-005  -2.335138e-007            
6.437854e-005  -2.3365699e-007            
6.4578474e-005  -2.3374048e-007            
6.4778407e-005  -2.3372415e-007            
6.4978341e-005  -2.3377718e-007            
6.5178274e-005  -2.3388075e-007            
6.5378207e-005  -2.3416118e-007            
6.5578141e-005  -2.3453433e-007            
6.5778074e-005  -2.3463848e-007            
6.5978007e-005  -2.3454604e-007            
6.6177941e-005  -2.3460432e-007            
6.6377874e-005  -2.3482749e-007            
6.6577807e-005  -2.350565e-007            
6.6777741e-005  -2.3506173e-007            
6.6977674e-005  -2.3514536e-007            
6.7177607e-005  -2.3520717e-007            
6.7377541e-005  -2.3537437e-007            
6.7577474e-005  -2.3558897e-007            
6.7777407e-005  -2.3590531e-007            
6.7977341e-005  -2.3596627e-007            
6.8177274e-005  -2.3615378e-007            
6.8377208e-005  -2.3597253e-007            
6.8577141e-005  -2.3604112e-007            
6.8777074e-005  -2.3620618e-007            
6.8977008e-005  -2.364984e-007            
6.9176941e-005  -2.3664515e-007            
6.9376874e-005  -2.3658054e-007            
6.9576808e-005  -2.3645404e-007            
6.9776741e-005  -2.3659191e-007            
6.9976674e-005  -2.3672082e-007            
7.0176608e-005  -2.3683339e-007            
7.0376541e-005  -2.3699448e-007            
7.0576474e-005  -2.3685431e-007            
7.0776408e-005  -2.3676553e-007            
7.0976341e-005  -2.3675421e-007            
7.1176275e-005  -2.3699267e-007            
7.1376208e-005  -2.3707377e-007            
7.1576141e-005  -2.3726543e-007            
7.1776075e-005  -2.3722578e-007            
7.1976008e-005  -2.3700616e-007            
7.2175941e-005  -2.3696082e-007            
7.2375875e-005  -2.370578e-007            
7.2575808e-005  -2.3720089e-007            
7.2775741e-005  -2.3739671e-007            
7.2975675e-005  -2.3737647e-007            
7.3175608e-005  -2.3714713e-007            
7.3375541e-005  -2.3713934e-007            
7.3575475e-005  -2.373871e-007            
7.3775408e-005  -2.3787431e-007            
7.3975342e-005  -2.3813812e-007            
7.4175275e-005  -2.379577e-007            
7.4375208e-005  -2.3789574e-007            
7.4575142e-005  -2.3799465e-007            
7.4775075e-005  -2.3831638e-007            
7.4975008e-005  -2.38726e-007            
7.5174942e-005  -2.3881998e-007            
7.5374875e-005  -2.3867278e-007            
7.5574808e-005  -2.3860841e-007            
7.5774742e-005  -2.3882428e-007            
7.5974675e-005  -2.3916242e-007            
7.6174608e-005  -2.3943306e-007            
7.6374542e-005  -2.3961132e-007            
7.6574475e-005  -2.3969879e-007            
7.6774408e-005  -2.3974513e-007            
7.6974342e-005  -2.3986543e-007            
7.7174275e-005  -2.4002884e-007            
7.7374209e-005  -2.4034316e-007            
7.7574142e-005  -2.4051559e-007            
7.7774075e-005  -2.404479e-007            
7.7974009e-005  -2.4003294e-007            
7.8173942e-005  -2.3965999e-007            
7.8373875e-005  -2.3908004e-007            
7.8573809e-005  -2.3852392e-007            
7.8773742e-005  -2.3760418e-007            
7.8973675e-005  -2.3622524e-007            
7.9173609e-005  -2.348192e-007            
7.9373542e-005  -2.3361978e-007            
7.9573475e-005  -2.3249035e-007            
7.9773409e-005  -2.3182449e-007            
7.9973342e-005  -2.3117695e-007            
8.0173276e-005  -2.3111894e-007            
8.0373209e-005  -2.3121362e-007            
8.0573142e-005  -2.3177624e-007            
8.0773076e-005  -2.3275813e-007            
8.0973009e-005  -2.3376667e-007            
8.1172942e-005  -2.349194e-007            
8.1372876e-005  -2.3563293e-007            
8.1572809e-005  -2.3620904e-007            
8.1772742e-005  -2.3692485e-007            
8.1972676e-005  -2.3784581e-007            
8.2172609e-005  -2.3867318e-007            
8.2372542e-005  -2.3937271e-007            
8.2572476e-005  -2.3982882e-007            
8.2772409e-005  -2.4037576e-007            
8.2972343e-005  -2.4102754e-007            
8.3172276e-005  -2.4156516e-007            
8.3372209e-005  -2.4218705e-007            
8.3572143e-005  -2.4291219e-007            
8.3772076e-005  -2.4341606e-007            
8.3972009e-005  -2.4382736e-007            
8.4171943e-005  -2.442004e-007            
8.4371876e-005  -2.4453571e-007            
8.4571809e-005  -2.4503911e-007            
8.4771743e-005  -2.4581405e-007            
8.4971676e-005  -2.4627798e-007            
8.5171609e-005  -2.4656455e-007            
8.5371543e-005  -2.4701248e-007            
8.5571476e-005  -2.4758448e-007            
8.5771409e-005  -2.4807957e-007            
8.5971343e-005  -2.4866776e-007            
8.6171276e-005  -2.4897797e-007            
8.637121e-005  -2.4947297e-007            
8.6571143e-005  -2.5007557e-007            
8.6771076e-005  -2.5064458e-007            
8.697101e-005  -2.5136561e-007            
8.7170943e-005  -2.5220919e-007            
8.7370876e-005  -2.5297044e-007            
8.757081e-005  -2.5367105e-007            
8.7770743e-005  -2.5409532e-007            
8.7970676e-005  -2.5470455e-007            
8.817061e-005  -2.5536412e-007            
8.8370543e-005  -2.561975e-007            
8.8570476e-005  -2.5683223e-007            
8.877041e-005  -2.5717926e-007            
8.8970343e-005  -2.5747919e-007            
8.9170277e-005  -2.5781699e-007            
8.937021e-005  -2.5832767e-007            
8.9570143e-005  -2.5860961e-007            
8.9770077e-005  -2.5897092e-007            
8.997001e-005  -2.5902118e-007            
9.0169943e-005  -2.5912948e-007            
9.0369877e-005  -2.5916522e-007            
9.056981e-005  -2.592358e-007            
9.0769743e-005  -2.5948982e-007            
