Surface Profile             
x       y           
[m]     [m]         
0  -2.2511488e-009            
1.9993336e-007  -4.0515973e-009            
3.9986671e-007  -5.2093491e-009            
5.9980007e-007  -6.178024e-009            
7.9973342e-007  -7.4953782e-009            
9.9966678e-007  -7.7478795e-009            
1.1996001e-006  -8.158977e-009            
1.3995335e-006  -8.8800233e-009            
1.5994668e-006  -1.0081315e-008            
1.7994002e-006  -1.1317699e-008            
1.9993336e-006  -1.2342332e-008            
2.1992669e-006  -1.3302842e-008            
2.3992003e-006  -1.4303739e-008            
2.5991336e-006  -1.5378528e-008            
2.799067e-006  -1.6605601e-008            
2.9990003e-006  -1.7939945e-008            
3.1989337e-006  -1.9208048e-008            
3.398867e-006  -2.030702e-008            
3.5988004e-006  -2.1084802e-008            
3.7987338e-006  -2.2208959e-008            
3.9986671e-006  -2.3753519e-008            
4.1986005e-006  -2.5386475e-008            
4.3985338e-006  -2.6868437e-008            
4.5984672e-006  -2.7785119e-008            
4.7984005e-006  -2.8961196e-008            
4.9983339e-006  -3.0170676e-008            
5.1982672e-006  -3.1667748e-008            
5.3982006e-006  -3.3130794e-008            
5.598134e-006  -3.4656268e-008            
5.7980673e-006  -3.5805038e-008            
5.9980007e-006  -3.6922498e-008            
6.197934e-006  -3.8258875e-008            
6.3978674e-006  -3.9617122e-008            
6.5978007e-006  -4.1263197e-008            
6.7977341e-006  -4.2565487e-008            
6.9976674e-006  -4.3865583e-008            
7.1976008e-006  -4.5165512e-008            
7.3975342e-006  -4.6551415e-008            
7.5974675e-006  -4.8079111e-008            
7.7974009e-006  -4.9644738e-008            
7.9973342e-006  -5.1368592e-008            
8.1972676e-006  -5.2930861e-008            
8.3972009e-006  -5.4329359e-008            
8.5971343e-006  -5.5808232e-008            
8.7970676e-006  -5.7488338e-008            
8.997001e-006  -5.9288688e-008            
9.1969344e-006  -6.1053324e-008            
9.3968677e-006  -6.238775e-008            
9.5968011e-006  -6.3802452e-008            
9.7967344e-006  -6.5279001e-008            
9.9966678e-006  -6.6894314e-008            
1.0196601e-005  -6.8789096e-008            
1.0396534e-005  -7.0501327e-008            
1.0596468e-005  -7.2030801e-008            
1.0796401e-005  -7.3576683e-008            
1.0996335e-005  -7.5047304e-008            
1.1196268e-005  -7.6696381e-008            
1.1396201e-005  -7.8473936e-008            
1.1596135e-005  -8.0293985e-008            
1.1796068e-005  -8.1958561e-008            
1.1996001e-005  -8.3594601e-008            
1.2195935e-005  -8.5027077e-008            
1.2395868e-005  -8.6636852e-008            
1.2595801e-005  -8.8209102e-008            
1.2795735e-005  -8.9987004e-008            
1.2995668e-005  -9.1768558e-008            
1.3195601e-005  -9.3431056e-008            
1.3395535e-005  -9.5066886e-008            
1.3595468e-005  -9.6786005e-008            
1.3795402e-005  -9.8839967e-008            
1.3995335e-005  -1.0071777e-007            
1.4195268e-005  -1.025177e-007            
1.4395202e-005  -1.0421873e-007            
1.4595135e-005  -1.0585662e-007            
1.4795068e-005  -1.0764557e-007            
1.4995002e-005  -1.0951568e-007            
1.5194935e-005  -1.1133414e-007            
1.5394868e-005  -1.1302492e-007            
1.5594802e-005  -1.1445764e-007            
1.5794735e-005  -1.1597162e-007            
1.5994668e-005  -1.1753532e-007            
1.6194602e-005  -1.1941388e-007            
1.6394535e-005  -1.2128494e-007            
1.6594469e-005  -1.2280602e-007            
1.6794402e-005  -1.2421053e-007            
1.6994335e-005  -1.2584072e-007            
1.7194269e-005  -1.2737493e-007            
1.7394202e-005  -1.2927009e-007            
1.7594135e-005  -1.3116199e-007            
1.7794069e-005  -1.3285587e-007            
1.7994002e-005  -1.345568e-007            
1.8193935e-005  -1.36383e-007            
1.8393869e-005  -1.3798398e-007            
1.8593802e-005  -1.3992743e-007            
1.8793735e-005  -1.4189683e-007            
1.8993669e-005  -1.4372456e-007            
1.9193602e-005  -1.4564946e-007            
1.9393535e-005  -1.4714638e-007            
1.9593469e-005  -1.487641e-007            
1.9793402e-005  -1.5081193e-007            
1.9993336e-005  -1.5268022e-007            
2.0193269e-005  -1.5444436e-007            
2.0393202e-005  -1.5587981e-007            
2.0593136e-005  -1.5727254e-007            
2.0793069e-005  -1.5901239e-007            
2.0993002e-005  -1.6085693e-007            
2.1192936e-005  -1.6268038e-007            
2.1392869e-005  -1.6430956e-007            
2.1592802e-005  -1.6593244e-007            
2.1792736e-005  -1.6753942e-007            
2.1992669e-005  -1.6922551e-007            
2.2192602e-005  -1.7096514e-007            
2.2392536e-005  -1.7297143e-007            
2.2592469e-005  -1.7484218e-007            
2.2792403e-005  -1.7667878e-007            
2.2992336e-005  -1.7837993e-007            
2.3192269e-005  -1.8029575e-007            
2.3392203e-005  -1.8234566e-007            
2.3592136e-005  -1.8441229e-007            
2.3792069e-005  -1.8633823e-007            
2.3992003e-005  -1.8811821e-007            
2.4191936e-005  -1.8995966e-007            
2.4391869e-005  -1.9192433e-007            
2.4591803e-005  -1.9393423e-007            
2.4791736e-005  -1.9567799e-007            
2.4991669e-005  -1.974746e-007            
2.5191603e-005  -1.9897006e-007            
2.5391536e-005  -2.0074547e-007            
2.5591469e-005  -2.0240203e-007            
2.5791403e-005  -2.0419244e-007            
2.5991336e-005  -2.0597773e-007            
2.619127e-005  -2.0767029e-007            
2.6391203e-005  -2.0928543e-007            
2.6591136e-005  -2.1078408e-007            
2.679107e-005  -2.1240625e-007            
2.6991003e-005  -2.1430474e-007            
2.7190936e-005  -2.1613205e-007            
2.739087e-005  -2.176145e-007            
2.7590803e-005  -2.1905673e-007            
2.7790736e-005  -2.2064498e-007            
2.799067e-005  -2.2234269e-007            
2.8190603e-005  -2.2417321e-007            
2.8390536e-005  -2.2572436e-007            
2.859047e-005  -2.2720854e-007            
2.8790403e-005  -2.2881668e-007            
2.8990337e-005  -2.3054907e-007            
2.919027e-005  -2.3223264e-007            
2.9390203e-005  -2.3380754e-007            
2.9590137e-005  -2.355028e-007            
2.979007e-005  -2.3712753e-007            
2.9990003e-005  -2.3871879e-007            
3.0189937e-005  -2.4012617e-007            
3.038987e-005  -2.4180253e-007            
3.0589803e-005  -2.4365008e-007            
3.0789737e-005  -2.4536799e-007            
3.098967e-005  -2.4679832e-007            
3.1189603e-005  -2.4840567e-007            
3.1389537e-005  -2.4997167e-007            
3.158947e-005  -2.5172461e-007            
3.1789404e-005  -2.5350815e-007            
3.1989337e-005  -2.5500174e-007            
3.218927e-005  -2.5664884e-007            
3.2389204e-005  -2.5841316e-007            
3.2589137e-005  -2.6017589e-007            
3.278907e-005  -2.6188116e-007            
3.2989004e-005  -2.6354399e-007            
3.3188937e-005  -2.6528385e-007            
3.338887e-005  -2.6712925e-007            
3.3588804e-005  -2.6880646e-007            
3.3788737e-005  -2.703605e-007            
3.398867e-005  -2.7201026e-007            
3.4188604e-005  -2.7364519e-007            
3.4388537e-005  -2.7533053e-007            
3.458847e-005  -2.7676539e-007            
3.4788404e-005  -2.7823718e-007            
3.4988337e-005  -2.7981527e-007            
3.5188271e-005  -2.8131064e-007            
3.5388204e-005  -2.8282162e-007            
3.5588137e-005  -2.8418574e-007            
3.5788071e-005  -2.8563498e-007            
3.5988004e-005  -2.8732701e-007            
3.6187937e-005  -2.8871938e-007            
3.6387871e-005  -2.8998859e-007            
3.6587804e-005  -2.9135323e-007            
3.6787737e-005  -2.9273408e-007            
3.6987671e-005  -2.9424753e-007            
3.7187604e-005  -2.9565989e-007            
3.7387537e-005  -2.9693011e-007            
3.7587471e-005  -2.9842897e-007            
3.7787404e-005  -2.9979997e-007            
3.7987338e-005  -3.0116891e-007            
3.8187271e-005  -3.0220065e-007            
3.8387204e-005  -3.0349652e-007            
3.8587138e-005  -3.0481083e-007            
3.8787071e-005  -3.0591769e-007            
3.8987004e-005  -3.0700573e-007            
3.9186938e-005  -3.0806158e-007            
3.9386871e-005  -3.0911235e-007            
3.9586804e-005  -3.1008484e-007            
3.9786738e-005  -3.1094739e-007            
3.9986671e-005  -3.1181694e-007            
4.0186604e-005  -3.1280748e-007            
4.0386538e-005  -3.1378739e-007            
4.0586471e-005  -3.146779e-007            
4.0786405e-005  -3.1554324e-007            
4.0986338e-005  -3.1657395e-007            
4.1186271e-005  -3.1759196e-007            
4.1386205e-005  -3.1861899e-007            
4.1586138e-005  -3.1955348e-007            
4.1786071e-005  -3.2043581e-007            
4.1986005e-005  -3.2141543e-007            
4.2185938e-005  -3.2229013e-007            
4.2385871e-005  -3.2298553e-007            
4.2585805e-005  -3.2375039e-007            
4.2785738e-005  -3.2487294e-007            
4.2985671e-005  -3.2587842e-007            
4.3185605e-005  -3.2671493e-007            
4.3385538e-005  -3.2736971e-007            
4.3585471e-005  -3.2815773e-007            
4.3785405e-005  -3.2901789e-007            
4.3985338e-005  -3.298585e-007            
4.4185272e-005  -3.3060316e-007            
4.4385205e-005  -3.3139107e-007            
4.4585138e-005  -3.3198043e-007            
4.4785072e-005  -3.3282843e-007            
4.4985005e-005  -3.3360767e-007            
4.5184938e-005  -3.3421548e-007            
4.5384872e-005  -3.3511273e-007            
4.5584805e-005  -3.358437e-007            
4.5784738e-005  -3.3631228e-007            
4.5984672e-005  -3.3680282e-007            
4.6184605e-005  -3.3745381e-007            
4.6384538e-005  -3.3828724e-007            
4.6584472e-005  -3.3899557e-007            
4.6784405e-005  -3.3955384e-007            
4.6984339e-005  -3.4010866e-007            
4.7184272e-005  -3.4066304e-007            
4.7384205e-005  -3.4128961e-007            
4.7584139e-005  -3.4200741e-007            
4.7784072e-005  -3.4243131e-007            
4.7984005e-005  -3.430252e-007            
4.8183939e-005  -3.4345608e-007            
4.8383872e-005  -3.4394877e-007            
4.8583805e-005  -3.4433939e-007            
4.8783739e-005  -3.4471175e-007            
4.8983672e-005  -3.4512214e-007            
4.9183605e-005  -3.4557331e-007            
4.9383539e-005  -3.4573703e-007            
4.9583472e-005  -3.4584249e-007            
4.9783406e-005  -3.4602587e-007            
4.9983339e-005  -3.4624343e-007            
5.0183272e-005  -3.4634455e-007            
5.0383206e-005  -3.462788e-007            
5.0583139e-005  -3.4628769e-007            
5.0783072e-005  -3.465787e-007            
5.0983006e-005  -3.4681869e-007            
5.1182939e-005  -3.4690679e-007            
5.1382872e-005  -3.4671385e-007            
5.1582806e-005  -3.4676198e-007            
5.1782739e-005  -3.4678466e-007            
5.1982672e-005  -3.4676201e-007            
5.2182606e-005  -3.4649097e-007            
5.2382539e-005  -3.4634018e-007            
5.2582472e-005  -3.462223e-007            
5.2782406e-005  -3.4613966e-007            
5.2982339e-005  -3.4570235e-007            
5.3182273e-005  -3.4522003e-007            
5.3382206e-005  -3.4499369e-007            
5.3582139e-005  -3.4469366e-007            
5.3782073e-005  -3.441774e-007            
5.3982006e-005  -3.4339019e-007            
5.4181939e-005  -3.4279993e-007            
5.4381873e-005  -3.4262163e-007            
5.4581806e-005  -3.4234707e-007            
5.4781739e-005  -3.4167215e-007            
5.4981673e-005  -3.4078933e-007            
5.5181606e-005  -3.4022356e-007            
5.5381539e-005  -3.3969598e-007            
5.5581473e-005  -3.38996e-007            
5.5781406e-005  -3.3817433e-007            
5.598134e-005  -3.3746477e-007            
5.6181273e-005  -3.367904e-007            
5.6381206e-005  -3.3611503e-007            
5.658114e-005  -3.3505204e-007            
5.6781073e-005  -3.3416093e-007            
5.6981006e-005  -3.3348303e-007            
5.718094e-005  -3.3262596e-007            
5.7380873e-005  -3.3157842e-007            
5.7580806e-005  -3.3036043e-007            
5.778074e-005  -3.2936954e-007            
5.7980673e-005  -3.2852251e-007            
5.8180606e-005  -3.2725103e-007            
5.838054e-005  -3.2592656e-007            
5.8580473e-005  -3.2463367e-007            
5.8780407e-005  -3.2361136e-007            
5.898034e-005  -3.2248185e-007            
5.9180273e-005  -3.2117307e-007            
5.9380207e-005  -3.1980139e-007            
5.958014e-005  -3.1881732e-007            
5.9780073e-005  -3.1757026e-007            
5.9980007e-005  -3.1618585e-007            
6.017994e-005  -3.1468278e-007            
6.0379873e-005  -3.1330944e-007            
6.0579807e-005  -3.1202192e-007            
6.077974e-005  -3.1055047e-007            
6.0979673e-005  -3.086092e-007            
6.1179607e-005  -3.0695438e-007            
6.137954e-005  -3.0537328e-007            
6.1579473e-005  -3.037138e-007            
6.1779407e-005  -3.0177761e-007            
6.197934e-005  -2.9987996e-007            
6.2179274e-005  -2.9813638e-007            
6.2379207e-005  -2.9657193e-007            
6.257914e-005  -2.947684e-007            
6.2779074e-005  -2.9273212e-007            
6.2979007e-005  -2.9071943e-007            
6.317894e-005  -2.8878676e-007            
6.3378874e-005  -2.8680337e-007            
6.3578807e-005  -2.8476399e-007            
6.377874e-005  -2.8263518e-007            
6.3978674e-005  -2.8063109e-007            
6.4178607e-005  -2.7849217e-007            
6.437854e-005  -2.7627634e-007            
6.4578474e-005  -2.7411042e-007            
6.4778407e-005  -2.7199093e-007            
6.4978341e-005  -2.7001938e-007            
6.5178274e-005  -2.6777183e-007            
6.5378207e-005  -2.6560876e-007            
6.5578141e-005  -2.6324665e-007            
6.5778074e-005  -2.6098694e-007            
6.5978007e-005  -2.5883676e-007            
6.6177941e-005  -2.5646761e-007            
6.6377874e-005  -2.5414244e-007            
6.6577807e-005  -2.5194213e-007            
6.6777741e-005  -2.4950368e-007            
6.6977674e-005  -2.4709685e-007            
6.7177607e-005  -2.4449761e-007            
6.7377541e-005  -2.4212185e-007            
6.7577474e-005  -2.3967467e-007            
6.7777407e-005  -2.3696931e-007            
6.7977341e-005  -2.3446665e-007            
6.8177274e-005  -2.3193042e-007            
6.8377208e-005  -2.2957805e-007            
6.8577141e-005  -2.2718007e-007            
6.8777074e-005  -2.2440443e-007            
6.8977008e-005  -2.2197372e-007            
6.9176941e-005  -2.1965735e-007            
6.9376874e-005  -2.1722163e-007            
6.9576808e-005  -2.1473129e-007            
6.9776741e-005  -2.1222769e-007            
6.9976674e-005  -2.0999741e-007            
7.0176608e-005  -2.0770216e-007            
7.0376541e-005  -2.0525791e-007            
7.0576474e-005  -2.026147e-007            
7.0776408e-005  -2.0014939e-007            
7.0976341e-005  -1.9771023e-007            
7.1176275e-005  -1.9497996e-007            
7.1376208e-005  -1.923128e-007            
7.1576141e-005  -1.8959341e-007            
7.1776075e-005  -1.8688537e-007            
7.1976008e-005  -1.8424533e-007            
7.2175941e-005  -1.8144402e-007            
7.2375875e-005  -1.7862551e-007            
7.2575808e-005  -1.7598545e-007            
7.2775741e-005  -1.733936e-007            
7.2975675e-005  -1.7056459e-007            
7.3175608e-005  -1.6791262e-007            
7.3375541e-005  -1.6521392e-007            
7.3575475e-005  -1.6276121e-007            
7.3775408e-005  -1.601673e-007            
7.3975342e-005  -1.5732641e-007            
7.4175275e-005  -1.5452187e-007            
7.4375208e-005  -1.5202246e-007            
7.4575142e-005  -1.4935766e-007            
7.4775075e-005  -1.4683865e-007            
7.4975008e-005  -1.4417422e-007            
7.5174942e-005  -1.4149134e-007            
7.5374875e-005  -1.3881615e-007            
7.5574808e-005  -1.3581148e-007            
7.5774742e-005  -1.3316047e-007            
7.5974675e-005  -1.3038573e-007            
7.6174608e-005  -1.277911e-007            
7.6374542e-005  -1.2517012e-007            
7.6574475e-005  -1.2234843e-007            
7.6774408e-005  -1.1949397e-007            
7.6974342e-005  -1.1684087e-007            
7.7174275e-005  -1.1440982e-007            
7.7374209e-005  -1.1200173e-007            
7.7574142e-005  -1.0945312e-007            
7.7774075e-005  -1.0694751e-007            
7.7974009e-005  -1.0441628e-007            
7.8173942e-005  -1.0189397e-007            
7.8373875e-005  -9.9451178e-008            
7.8573809e-005  -9.7028061e-008            
7.8773742e-005  -9.466258e-008            
7.8973675e-005  -9.2543912e-008            
7.9173609e-005  -9.0224406e-008            
7.9373542e-005  -8.7830165e-008            
7.9573475e-005  -8.5600822e-008            
7.9773409e-005  -8.349272e-008            
7.9973342e-005  -8.1246021e-008            
8.0173276e-005  -7.8879978e-008            
8.0373209e-005  -7.6212623e-008            
8.0573142e-005  -7.3867079e-008            
8.0773076e-005  -7.1537876e-008            
8.0973009e-005  -6.9201745e-008            
8.1172942e-005  -6.6873534e-008            
8.1372876e-005  -6.4241386e-008            
8.1572809e-005  -6.1827422e-008            
8.1772742e-005  -5.947878e-008            
8.1972676e-005  -5.7036859e-008            
8.2172609e-005  -5.4503106e-008            
8.2372542e-005  -5.1857705e-008            
8.2572476e-005  -4.9385467e-008            
8.2772409e-005  -4.6881005e-008            
8.2972343e-005  -4.438307e-008            
8.3172276e-005  -4.1973517e-008            
8.3372209e-005  -3.9723088e-008            
8.3572143e-005  -3.744198e-008            
8.3772076e-005  -3.4962056e-008            
8.3972009e-005  -3.2567526e-008            
8.4171943e-005  -3.0362031e-008            
8.4371876e-005  -2.8237974e-008            
8.4571809e-005  -2.6033492e-008            
8.4771743e-005  -2.3755338e-008            
8.4971676e-005  -2.1315112e-008            
8.5171609e-005  -1.9159481e-008            
8.5371543e-005  -1.6980055e-008            
8.5571476e-005  -1.4641734e-008            
8.5771409e-005  -1.2295632e-008            
8.5971343e-005  -1.0061252e-008            
8.6171276e-005  -7.6593025e-009            
8.637121e-005  -5.2908681e-009            
8.6571143e-005  -2.8103301e-009            
8.6771076e-005  -3.1335875e-010            
8.697101e-005  1.9958199e-009            
8.7170943e-005  4.5945206e-009            
8.7370876e-005  7.2470699e-009            
8.757081e-005  9.8089301e-009            
8.7770743e-005  1.2356085e-008            
8.7970676e-005  1.4655209e-008            
8.817061e-005  1.7228175e-008            
8.8370543e-005  1.9797144e-008            
8.8570476e-005  2.2310584e-008            
8.877041e-005  2.4627526e-008            
8.8970343e-005  2.6837411e-008            
8.9170277e-005  2.9369705e-008            
8.937021e-005  3.196704e-008            
8.9570143e-005  3.4340541e-008            
8.9770077e-005  3.6698435e-008            
8.997001e-005  3.9092266e-008            
9.0169943e-005  4.1666495e-008            
9.0369877e-005  4.4297763e-008            
9.056981e-005  4.6738928e-008            
9.0769743e-005  4.9280085e-008            
