Surface Profile             
x       y           
[m]     [m]         
0  -6.7528564e-009            
1.9993336e-007  -9.1199542e-009            
3.9986671e-007  -1.1032328e-008            
5.9980007e-007  -1.2725489e-008            
7.9973342e-007  -1.4240655e-008            
9.9966678e-007  -1.5559699e-008            
1.1996001e-006  -1.6978697e-008            
1.3995335e-006  -1.8617295e-008            
1.5994668e-006  -2.0185828e-008            
1.7994002e-006  -2.2166463e-008            
1.9993336e-006  -2.395718e-008            
2.1992669e-006  -2.6074466e-008            
2.3992003e-006  -2.8288025e-008            
2.5991336e-006  -3.0419946e-008            
2.799067e-006  -3.2529189e-008            
2.9990003e-006  -3.4776543e-008            
3.1989337e-006  -3.6808649e-008            
3.398867e-006  -3.9049312e-008            
3.5988004e-006  -4.1386115e-008            
3.7987338e-006  -4.3549895e-008            
3.9986671e-006  -4.575588e-008            
4.1986005e-006  -4.7580919e-008            
4.3985338e-006  -4.9690929e-008            
4.5984672e-006  -5.1940676e-008            
4.7984005e-006  -5.4073192e-008            
4.9983339e-006  -5.6078162e-008            
5.1982672e-006  -5.8005909e-008            
5.3982006e-006  -6.0078434e-008            
5.598134e-006  -6.2194206e-008            
5.7980673e-006  -6.4288954e-008            
5.9980007e-006  -6.6362714e-008            
6.197934e-006  -6.8484762e-008            
6.3978674e-006  -7.0499483e-008            
6.5978007e-006  -7.231905e-008            
6.7977341e-006  -7.4035955e-008            
6.9976674e-006  -7.5875896e-008            
7.1976008e-006  -7.7863258e-008            
7.3975342e-006  -7.9755393e-008            
7.5974675e-006  -8.1308507e-008            
7.7974009e-006  -8.27945e-008            
7.9973342e-006  -8.4424216e-008            
8.1972676e-006  -8.6102757e-008            
8.3972009e-006  -8.7690631e-008            
8.5971343e-006  -8.9134042e-008            
8.7970676e-006  -9.0546784e-008            
8.997001e-006  -9.1887885e-008            
9.1969344e-006  -9.32492e-008            
9.3968677e-006  -9.4490785e-008            
9.5968011e-006  -9.5866257e-008            
9.7967344e-006  -9.7267723e-008            
9.9966678e-006  -9.8393535e-008            
1.0196601e-005  -9.952091e-008            
1.0396534e-005  -1.0071974e-007            
1.0596468e-005  -1.019242e-007            
1.0796401e-005  -1.0334561e-007            
1.0996335e-005  -1.0423448e-007            
1.1196268e-005  -1.0537451e-007            
1.1396201e-005  -1.0647103e-007            
1.1596135e-005  -1.0751426e-007            
1.1796068e-005  -1.0856496e-007            
1.1996001e-005  -1.0949076e-007            
1.2195935e-005  -1.1038086e-007            
1.2395868e-005  -1.1124951e-007            
1.2595801e-005  -1.1186699e-007            
1.2795735e-005  -1.1255279e-007            
1.2995668e-005  -1.1340453e-007            
1.3195601e-005  -1.141032e-007            
1.3395535e-005  -1.1472412e-007            
1.3595468e-005  -1.1506673e-007            
1.3795402e-005  -1.1547436e-007            
1.3995335e-005  -1.1610109e-007            
1.4195268e-005  -1.1657172e-007            
1.4395202e-005  -1.1691067e-007            
1.4595135e-005  -1.1734421e-007            
1.4795068e-005  -1.1758581e-007            
1.4995002e-005  -1.1776869e-007            
1.5194935e-005  -1.1785135e-007            
1.5394868e-005  -1.18013e-007            
1.5594802e-005  -1.1844001e-007            
1.5794735e-005  -1.1859192e-007            
1.5994668e-005  -1.1828511e-007            
1.6194602e-005  -1.179977e-007            
1.6394535e-005  -1.1758732e-007            
1.6594469e-005  -1.1734804e-007            
1.6794402e-005  -1.1692804e-007            
1.6994335e-005  -1.1654244e-007            
1.7194269e-005  -1.1620107e-007            
1.7394202e-005  -1.1586731e-007            
1.7594135e-005  -1.1544827e-007            
1.7794069e-005  -1.1477808e-007            
1.7994002e-005  -1.1440821e-007            
1.8193935e-005  -1.1407811e-007            
1.8393869e-005  -1.1359603e-007            
1.8593802e-005  -1.1302096e-007            
1.8793735e-005  -1.1244077e-007            
1.8993669e-005  -1.1192619e-007            
1.9193602e-005  -1.1144274e-007            
1.9393535e-005  -1.1080598e-007            
1.9593469e-005  -1.100927e-007            
1.9793402e-005  -1.0930699e-007            
1.9993336e-005  -1.0854785e-007            
2.0193269e-005  -1.0785539e-007            
2.0393202e-005  -1.0691931e-007            
2.0593136e-005  -1.0603479e-007            
2.0793069e-005  -1.050833e-007            
2.0993002e-005  -1.04134e-007            
2.1192936e-005  -1.0326794e-007            
2.1392869e-005  -1.0215582e-007            
2.1592802e-005  -1.0100076e-007            
2.1792736e-005  -9.9968136e-008            
2.1992669e-005  -9.9069055e-008            
2.2192602e-005  -9.7712362e-008            
2.2392536e-005  -9.6529687e-008            
2.2592469e-005  -9.5121045e-008            
2.2792403e-005  -9.4009008e-008            
2.2992336e-005  -9.2718694e-008            
2.3192269e-005  -9.1201647e-008            
2.3392203e-005  -8.9695146e-008            
2.3592136e-005  -8.8336978e-008            
2.3792069e-005  -8.6843426e-008            
2.3992003e-005  -8.5224704e-008            
2.4191936e-005  -8.3620767e-008            
2.4391869e-005  -8.1973715e-008            
2.4591803e-005  -8.0476431e-008            
2.4791736e-005  -7.8730683e-008            
2.4991669e-005  -7.6988331e-008            
2.5191603e-005  -7.51887e-008            
2.5391536e-005  -7.3562223e-008            
2.5591469e-005  -7.1676542e-008            
2.5791403e-005  -6.9869508e-008            
2.5991336e-005  -6.7842011e-008            
2.619127e-005  -6.577765e-008            
2.6391203e-005  -6.3965465e-008            
2.6591136e-005  -6.1810024e-008            
2.679107e-005  -5.9576981e-008            
2.6991003e-005  -5.7484365e-008            
2.7190936e-005  -5.5468749e-008            
2.739087e-005  -5.3486252e-008            
2.7590803e-005  -5.1354781e-008            
2.7790736e-005  -4.9236866e-008            
2.799067e-005  -4.7335489e-008            
2.8190603e-005  -4.5291749e-008            
2.8390536e-005  -4.3150208e-008            
2.859047e-005  -4.1239492e-008            
2.8790403e-005  -3.928154e-008            
2.8990337e-005  -3.7348763e-008            
2.919027e-005  -3.5496596e-008            
2.9390203e-005  -3.3219341e-008            
2.9590137e-005  -3.1106973e-008            
2.979007e-005  -2.9204096e-008            
2.9990003e-005  -2.7274636e-008            
3.0189937e-005  -2.5453457e-008            
3.038987e-005  -2.3165386e-008            
3.0589803e-005  -2.081052e-008            
3.0789737e-005  -1.8506229e-008            
3.098967e-005  -1.6453399e-008            
3.1189603e-005  -1.4426951e-008            
3.1389537e-005  -1.2548698e-008            
3.158947e-005  -1.012444e-008            
3.1789404e-005  -7.8100813e-009            
3.1989337e-005  -5.455729e-009            
3.218927e-005  -3.2818701e-009            
3.2389204e-005  -1.2755567e-009            
3.2589137e-005  7.0249066e-010            
3.278907e-005  2.9253772e-009            
3.2989004e-005  5.0452639e-009            
3.3188937e-005  7.1762157e-009            
3.338887e-005  9.2862242e-009            
3.3588804e-005  1.1261231e-008            
3.3788737e-005  1.3294439e-008            
3.398867e-005  1.5342823e-008            
3.4188604e-005  1.7552318e-008            
3.4388537e-005  1.9680981e-008            
3.458847e-005  2.163134e-008            
3.4788404e-005  2.3517845e-008            
3.4988337e-005  2.5609873e-008            
3.5188271e-005  2.8005607e-008            
3.5388204e-005  3.0237735e-008            
3.5588137e-005  3.2289629e-008            
3.5788071e-005  3.4292171e-008            
3.5988004e-005  3.6452167e-008            
3.6187937e-005  3.8847523e-008            
3.6387871e-005  4.10253e-008            
3.6587804e-005  4.3301548e-008            
3.6787737e-005  4.5731359e-008            
3.6987671e-005  4.8016588e-008            
3.7187604e-005  5.0267561e-008            
3.7387537e-005  5.2441662e-008            
3.7587471e-005  5.4802983e-008            
3.7787404e-005  5.7281716e-008            
3.7987338e-005  5.9549092e-008            
3.8187271e-005  6.1686424e-008            
3.8387204e-005  6.3860501e-008            
3.8587138e-005  6.5858001e-008            
3.8787071e-005  6.8244901e-008            
3.8987004e-005  7.0545958e-008            
3.9186938e-005  7.2361208e-008            
3.9386871e-005  7.4255467e-008            
3.9586804e-005  7.6263992e-008            
3.9786738e-005  7.8372113e-008            
3.9986671e-005  8.0401217e-008            
4.0186604e-005  8.2093491e-008            
4.0386538e-005  8.3981349e-008            
4.0586471e-005  8.5987611e-008            
4.0786405e-005  8.7716571e-008            
4.0986338e-005  8.9366726e-008            
4.1186271e-005  9.1132983e-008            
4.1386205e-005  9.3138882e-008            
4.1586138e-005  9.5229309e-008            
4.1786071e-005  9.6873821e-008            
4.1986005e-005  9.849542e-008            
4.2185938e-005  1.0009982e-007            
4.2385871e-005  1.0187755e-007            
4.2585805e-005  1.0358125e-007            
4.2785738e-005  1.0521646e-007            
4.2985671e-005  1.0677302e-007            
4.3185605e-005  1.0848888e-007            
4.3385538e-005  1.1027933e-007            
4.3585471e-005  1.1178317e-007            
4.3785405e-005  1.1330705e-007            
4.3985338e-005  1.1499272e-007            
4.4185272e-005  1.1677581e-007            
4.4385205e-005  1.1836834e-007            
4.4585138e-005  1.1984667e-007            
4.4785072e-005  1.2143642e-007            
4.4985005e-005  1.2311811e-007            
4.5184938e-005  1.2493624e-007            
4.5384872e-005  1.2668367e-007            
4.5584805e-005  1.2849949e-007            
4.5784738e-005  1.3039293e-007            
4.5984672e-005  1.3220327e-007            
4.6184605e-005  1.3409895e-007            
4.6384538e-005  1.3570187e-007            
4.6584472e-005  1.3753362e-007            
4.6784405e-005  1.3939945e-007            
4.6984339e-005  1.4096637e-007            
4.7184272e-005  1.424304e-007            
4.7384205e-005  1.4404884e-007            
4.7584139e-005  1.4545266e-007            
4.7784072e-005  1.4723832e-007            
4.7984005e-005  1.4857622e-007            
4.8183939e-005  1.4995369e-007            
4.8383872e-005  1.5143591e-007            
4.8583805e-005  1.5292875e-007            
4.8783739e-005  1.5425859e-007            
4.8983672e-005  1.5547736e-007            
4.9183605e-005  1.5657985e-007            
4.9383539e-005  1.5778428e-007            
4.9583472e-005  1.5921382e-007            
4.9783406e-005  1.6049287e-007            
4.9983339e-005  1.6178839e-007            
5.0183272e-005  1.6321328e-007            
5.0383206e-005  1.6458135e-007            
5.0583139e-005  1.6595178e-007            
5.0783072e-005  1.6700065e-007            
5.0983006e-005  1.680656e-007            
5.1182939e-005  1.6956275e-007            
5.1382872e-005  1.7098401e-007            
5.1582806e-005  1.7217702e-007            
5.1782739e-005  1.7295477e-007            
5.1982672e-005  1.7389065e-007            
5.2182606e-005  1.7510486e-007            
5.2382539e-005  1.7618381e-007            
5.2582472e-005  1.7700935e-007            
5.2782406e-005  1.7778678e-007            
5.2982339e-005  1.7882678e-007            
5.3182273e-005  1.7968503e-007            
5.3382206e-005  1.8043777e-007            
5.3582139e-005  1.8132616e-007            
5.3782073e-005  1.8189637e-007            
5.3982006e-005  1.8259462e-007            
5.4181939e-005  1.8329817e-007            
5.4381873e-005  1.8398733e-007            
5.4581806e-005  1.8495671e-007            
5.4781739e-005  1.856958e-007            
5.4981673e-005  1.8649131e-007            
5.5181606e-005  1.8727941e-007            
5.5381539e-005  1.8795183e-007            
5.5581473e-005  1.8898046e-007            
5.5781406e-005  1.8996602e-007            
5.598134e-005  1.9075974e-007            
5.6181273e-005  1.9149182e-007            
5.6381206e-005  1.9244871e-007            
5.658114e-005  1.9326917e-007            
5.6781073e-005  1.9408793e-007            
5.6981006e-005  1.9483636e-007            
5.718094e-005  1.9563997e-007            
5.7380873e-005  1.966989e-007            
5.7580806e-005  1.9738206e-007            
5.778074e-005  1.9821177e-007            
5.7980673e-005  1.9907107e-007            
5.8180606e-005  2.0006618e-007            
5.838054e-005  2.0080321e-007            
5.8580473e-005  2.0143301e-007            
5.8780407e-005  2.0188173e-007            
5.898034e-005  2.0282533e-007            
5.9180273e-005  2.0382611e-007            
5.9380207e-005  2.0473619e-007            
5.958014e-005  2.0532286e-007            
5.9780073e-005  2.0593225e-007            
5.9980007e-005  2.0661621e-007            
6.017994e-005  2.0741227e-007            
6.0379873e-005  2.0821697e-007            
6.0579807e-005  2.0895767e-007            
6.077974e-005  2.0964234e-007            
6.0979673e-005  2.1015196e-007            
6.1179607e-005  2.1061727e-007            
6.137954e-005  2.1129236e-007            
6.1579473e-005  2.1190208e-007            
6.1779407e-005  2.1260382e-007            
6.197934e-005  2.1317164e-007            
6.2179274e-005  2.1359901e-007            
6.2379207e-005  2.1417562e-007            
6.257914e-005  2.1471242e-007            
6.2779074e-005  2.1527601e-007            
6.2979007e-005  2.1607837e-007            
6.317894e-005  2.1651412e-007            
6.3378874e-005  2.1715411e-007            
6.3578807e-005  2.1796004e-007            
6.377874e-005  2.1854208e-007            
6.3978674e-005  2.1933579e-007            
6.4178607e-005  2.1999982e-007            
6.437854e-005  2.2055095e-007            
6.4578474e-005  2.2114266e-007            
6.4778407e-005  2.217862e-007            
6.4978341e-005  2.2266301e-007            
6.5178274e-005  2.2375475e-007            
6.5378207e-005  2.2469942e-007            
6.5578141e-005  2.2544733e-007            
6.5778074e-005  2.2633691e-007            
6.5978007e-005  2.271488e-007            
6.6177941e-005  2.2821336e-007            
6.6377874e-005  2.2919246e-007            
6.6577807e-005  2.2995634e-007            
6.6777741e-005  2.3081178e-007            
6.6977674e-005  2.315626e-007            
6.7177607e-005  2.3240535e-007            
6.7377541e-005  2.3330878e-007            
6.7577474e-005  2.3414192e-007            
6.7777407e-005  2.3504216e-007            
6.7977341e-005  2.3589357e-007            
6.8177274e-005  2.3684808e-007            
6.8377208e-005  2.3760108e-007            
6.8577141e-005  2.3823939e-007            
6.8777074e-005  2.3895645e-007            
6.8977008e-005  2.3966879e-007            
6.9176941e-005  2.4041051e-007            
6.9376874e-005  2.4108413e-007            
6.9576808e-005  2.4168205e-007            
6.9776741e-005  2.4250568e-007            
6.9976674e-005  2.4324707e-007            
7.0176608e-005  2.4391652e-007            
7.0376541e-005  2.4473065e-007            
7.0576474e-005  2.4532707e-007            
7.0776408e-005  2.460452e-007            
7.0976341e-005  2.4662612e-007            
7.1176275e-005  2.4709763e-007            
7.1376208e-005  2.4759797e-007            
7.1576141e-005  2.4805725e-007            
7.1776075e-005  2.4866697e-007            
7.1976008e-005  2.4899877e-007            
7.2175941e-005  2.4927673e-007            
7.2375875e-005  2.4964077e-007            
7.2575808e-005  2.5016045e-007            
7.2775741e-005  2.5037717e-007            
7.2975675e-005  2.5084933e-007            
7.3175608e-005  2.5103259e-007            
7.3375541e-005  2.5131177e-007            
7.3575475e-005  2.5167152e-007            
7.3775408e-005  2.5187475e-007            
7.3975342e-005  2.519848e-007            
7.4175275e-005  2.5226916e-007            
7.4375208e-005  2.5246065e-007            
7.4575142e-005  2.5257523e-007            
7.4775075e-005  2.5266422e-007            
7.4975008e-005  2.528932e-007            
7.5174942e-005  2.5321194e-007            
7.5374875e-005  2.5336531e-007            
7.5574808e-005  2.5324579e-007            
7.5774742e-005  2.5323695e-007            
7.5974675e-005  2.5330163e-007            
7.6174608e-005  2.5355665e-007            
7.6374542e-005  2.5355306e-007            
7.6574475e-005  2.5348286e-007            
7.6774408e-005  2.53342e-007            
7.6974342e-005  2.5338328e-007            
7.7174275e-005  2.536453e-007            
7.7374209e-005  2.5364062e-007            
7.7574142e-005  2.5361004e-007            
7.7774075e-005  2.5354868e-007            
7.7974009e-005  2.533846e-007            
7.8173942e-005  2.5318291e-007            
7.8373875e-005  2.5301621e-007            
7.8573809e-005  2.5300857e-007            
7.8773742e-005  2.5315639e-007            
7.8973675e-005  2.5316879e-007            
7.9173609e-005  2.529396e-007            
7.9373542e-005  2.5257762e-007            
7.9573475e-005  2.5255348e-007            
7.9773409e-005  2.5285366e-007            
7.9973342e-005  2.5276685e-007            
8.0173276e-005  2.5251971e-007            
8.0373209e-005  2.5232668e-007            
8.0573142e-005  2.521999e-007            
8.0773076e-005  2.5217823e-007            
8.0973009e-005  2.5219371e-007            
8.1172942e-005  2.5195762e-007            
8.1372876e-005  2.5184142e-007            
8.1572809e-005  2.5185469e-007            
8.1772742e-005  2.5177191e-007            
8.1972676e-005  2.5170302e-007            
8.2172609e-005  2.5148756e-007            
8.2372542e-005  2.515034e-007            
8.2572476e-005  2.5139453e-007            
8.2772409e-005  2.5097528e-007            
8.2972343e-005  2.5059061e-007            
8.3172276e-005  2.504425e-007            
8.3372209e-005  2.5042184e-007            
8.3572143e-005  2.5038132e-007            
8.3772076e-005  2.4996237e-007            
8.3972009e-005  2.4953369e-007            
8.4171943e-005  2.4933649e-007            
8.4371876e-005  2.493451e-007            
8.4571809e-005  2.4927188e-007            
8.4771743e-005  2.4884695e-007            
8.4971676e-005  2.4856193e-007            
8.5171609e-005  2.4844241e-007            
8.5371543e-005  2.4827847e-007            
8.5571476e-005  2.4800055e-007            
8.5771409e-005  2.4787741e-007            
8.5971343e-005  2.4767532e-007            
8.6171276e-005  2.4745661e-007            
8.637121e-005  2.469949e-007            
8.6571143e-005  2.4667716e-007            
8.6771076e-005  2.464876e-007            
8.697101e-005  2.4654218e-007            
8.7170943e-005  2.4616516e-007            
8.7370876e-005  2.4564773e-007            
8.757081e-005  2.45334e-007            
8.7770743e-005  2.4531245e-007            
8.7970676e-005  2.4520804e-007            
8.817061e-005  2.4515608e-007            
8.8370543e-005  2.4502351e-007            
8.8570476e-005  2.4479779e-007            
8.877041e-005  2.4484957e-007            
8.8970343e-005  2.4473966e-007            
8.9170277e-005  2.4483521e-007            
8.937021e-005  2.4484189e-007            
8.9570143e-005  2.4479033e-007            
8.9770077e-005  2.4483318e-007            
8.997001e-005  2.446419e-007            
9.0169943e-005  2.4454674e-007            
9.0369877e-005  2.4476024e-007            
9.056981e-005  2.450166e-007            
9.0769743e-005  2.4517032e-007            
9.0969677e-005  2.4524739e-007            
9.116961e-005  2.4516092e-007            
9.1369543e-005  2.4531042e-007            
9.1569477e-005  2.454754e-007            
9.176941e-005  2.4563436e-007            
9.1969344e-005  2.4572517e-007            
9.2169277e-005  2.4582939e-007            
