Surface Profile             
x       y           
[m]     [m]         
0  1.0808081e-009            
1.9993336e-007  2.1403161e-009            
3.9986671e-007  2.7875122e-009            
5.9980007e-007  3.7696851e-009            
7.9973342e-007  4.3549396e-009            
9.9966678e-007  4.8947696e-009            
1.1996001e-006  5.5652671e-009            
1.3995335e-006  6.1534018e-009            
1.5994668e-006  7.0757213e-009            
1.7994002e-006  7.7252867e-009            
1.9993336e-006  8.3360172e-009            
2.1992669e-006  9.4210407e-009            
2.3992003e-006  1.0228113e-008            
2.5991336e-006  1.1125423e-008            
2.799067e-006  1.2032392e-008            
2.9990003e-006  1.2947366e-008            
3.1989337e-006  1.4004052e-008            
3.398867e-006  1.4911107e-008            
3.5988004e-006  1.5860972e-008            
3.7987338e-006  1.6957272e-008            
3.9986671e-006  1.8006811e-008            
4.1986005e-006  1.9153905e-008            
4.3985338e-006  2.0413545e-008            
4.5984672e-006  2.1610786e-008            
4.7984005e-006  2.2818747e-008            
4.9983339e-006  2.3952642e-008            
5.1982672e-006  2.5223013e-008            
5.3982006e-006  2.643784e-008            
5.598134e-006  2.7733231e-008            
5.7980673e-006  2.8976264e-008            
5.9980007e-006  3.0144702e-008            
6.197934e-006  3.1325956e-008            
6.3978674e-006  3.2482382e-008            
6.5978007e-006  3.3890916e-008            
6.7977341e-006  3.5368597e-008            
6.9976674e-006  3.6753583e-008            
7.1976008e-006  3.8194229e-008            
7.3975342e-006  3.9519368e-008            
7.5974675e-006  4.0637447e-008            
7.7974009e-006  4.2057591e-008            
7.9973342e-006  4.3529398e-008            
8.1972676e-006  4.47442e-008            
8.3972009e-006  4.6117595e-008            
8.5971343e-006  4.7371688e-008            
8.7970676e-006  4.8727745e-008            
8.997001e-006  5.0238984e-008            
9.1969344e-006  5.1815042e-008            
9.3968677e-006  5.3576604e-008            
9.5968011e-006  5.4876567e-008            
9.7967344e-006  5.6058169e-008            
9.9966678e-006  5.7365293e-008            
1.0196601e-005  5.8915216e-008            
1.0396534e-005  6.0537731e-008            
1.0596468e-005  6.2023937e-008            
1.0796401e-005  6.3263174e-008            
1.0996335e-005  6.447222e-008            
1.1196268e-005  6.5864423e-008            
1.1396201e-005  6.7072161e-008            
1.1596135e-005  6.8527518e-008            
1.1796068e-005  6.9978217e-008            
1.1996001e-005  7.1337282e-008            
1.2195935e-005  7.2397119e-008            
1.2395868e-005  7.3365764e-008            
1.2595801e-005  7.4612852e-008            
1.2795735e-005  7.605135e-008            
1.2995668e-005  7.7276803e-008            
1.3195601e-005  7.8371446e-008            
1.3395535e-005  7.9413057e-008            
1.3595468e-005  8.037683e-008            
1.3795402e-005  8.1545819e-008            
1.3995335e-005  8.2664888e-008            
1.4195268e-005  8.3971961e-008            
1.4395202e-005  8.5065848e-008            
1.4595135e-005  8.5983855e-008            
1.4795068e-005  8.6943756e-008            
1.4995002e-005  8.7768136e-008            
1.5194935e-005  8.9160944e-008            
1.5394868e-005  9.0455493e-008            
1.5594802e-005  9.156801e-008            
1.5794735e-005  9.2413642e-008            
1.5994668e-005  9.3329319e-008            
1.6194602e-005  9.4525834e-008            
1.6394535e-005  9.5869907e-008            
1.6594469e-005  9.6964254e-008            
1.6794402e-005  9.7955439e-008            
1.6994335e-005  9.8970684e-008            
1.7194269e-005  9.9953763e-008            
1.7394202e-005  1.0113275e-007            
1.7594135e-005  1.0228735e-007            
1.7794069e-005  1.0365007e-007            
1.7994002e-005  1.0509679e-007            
1.8193935e-005  1.0622631e-007            
1.8393869e-005  1.0708481e-007            
1.8593802e-005  1.0824155e-007            
1.8793735e-005  1.0950719e-007            
1.8993669e-005  1.1124951e-007            
1.9193602e-005  1.1254415e-007            
1.9393535e-005  1.1337725e-007            
1.9593469e-005  1.1442256e-007            
1.9793402e-005  1.1582459e-007            
1.9993336e-005  1.1724208e-007            
2.0193269e-005  1.1866507e-007            
2.0393202e-005  1.197878e-007            
2.0593136e-005  1.2111105e-007            
2.0793069e-005  1.2241225e-007            
2.0993002e-005  1.2366863e-007            
2.1192936e-005  1.2479608e-007            
2.1392869e-005  1.2640347e-007            
2.1592802e-005  1.2793354e-007            
2.1792736e-005  1.2899189e-007            
2.1992669e-005  1.2992689e-007            
2.2192602e-005  1.3086427e-007            
2.2392536e-005  1.3252454e-007            
2.2592469e-005  1.340533e-007            
2.2792403e-005  1.350075e-007            
2.2992336e-005  1.3589714e-007            
2.3192269e-005  1.3687847e-007            
2.3392203e-005  1.3813349e-007            
2.3592136e-005  1.3945877e-007            
2.3792069e-005  1.4078255e-007            
2.3992003e-005  1.4188361e-007            
2.4191936e-005  1.4347663e-007            
2.4391869e-005  1.4452648e-007            
2.4591803e-005  1.4569746e-007            
2.4791736e-005  1.468226e-007            
2.4991669e-005  1.4821289e-007            
2.5191603e-005  1.4958898e-007            
2.5391536e-005  1.5060365e-007            
2.5591469e-005  1.5131142e-007            
2.5791403e-005  1.5239333e-007            
2.5991336e-005  1.53651e-007            
2.619127e-005  1.5481711e-007            
2.6391203e-005  1.5580643e-007            
2.6591136e-005  1.5663434e-007            
2.679107e-005  1.5766681e-007            
2.6991003e-005  1.5871045e-007            
2.7190936e-005  1.5970028e-007            
2.739087e-005  1.6084445e-007            
2.7590803e-005  1.6197617e-007            
2.7790736e-005  1.6331566e-007            
2.799067e-005  1.6426073e-007            
2.8190603e-005  1.651571e-007            
2.8390536e-005  1.6625603e-007            
2.859047e-005  1.6765704e-007            
2.8790403e-005  1.6906645e-007            
2.8990337e-005  1.7025216e-007            
2.919027e-005  1.7114698e-007            
2.9390203e-005  1.7224951e-007            
2.9590137e-005  1.7360528e-007            
2.979007e-005  1.7502693e-007            
2.9990003e-005  1.7616593e-007            
3.0189937e-005  1.7712079e-007            
3.038987e-005  1.7817643e-007            
3.0589803e-005  1.7913373e-007            
3.0789737e-005  1.8004225e-007            
3.098967e-005  1.8124093e-007            
3.1189603e-005  1.8262921e-007            
3.1389537e-005  1.8390129e-007            
3.158947e-005  1.8475083e-007            
3.1789404e-005  1.8546328e-007            
3.1989337e-005  1.8654475e-007            
3.218927e-005  1.8798451e-007            
3.2389204e-005  1.8923182e-007            
3.2589137e-005  1.901193e-007            
3.278907e-005  1.90924e-007            
3.2989004e-005  1.9177694e-007            
3.3188937e-005  1.9271374e-007            
3.338887e-005  1.9368474e-007            
3.3588804e-005  1.9481719e-007            
3.3788737e-005  1.9571628e-007            
3.398867e-005  1.9662982e-007            
3.4188604e-005  1.9756661e-007            
3.4388537e-005  1.9846126e-007            
3.458847e-005  1.9966104e-007            
3.4788404e-005  2.0072768e-007            
3.4988337e-005  2.0180286e-007            
3.5188271e-005  2.0261116e-007            
3.5388204e-005  2.033687e-007            
3.5588137e-005  2.0415774e-007            
3.5788071e-005  2.0531705e-007            
3.5988004e-005  2.0638627e-007            
3.6187937e-005  2.0729897e-007            
3.6387871e-005  2.0798793e-007            
3.6587804e-005  2.0875545e-007            
3.6787737e-005  2.0983627e-007            
3.6987671e-005  2.1093708e-007            
3.7187604e-005  2.1198678e-007            
3.7387537e-005  2.1295476e-007            
3.7587471e-005  2.1375497e-007            
3.7787404e-005  2.1459349e-007            
3.7987338e-005  2.1570665e-007            
3.8187271e-005  2.1686715e-007            
3.8387204e-005  2.1793115e-007            
3.8587138e-005  2.1888739e-007            
3.8787071e-005  2.1965386e-007            
3.8987004e-005  2.2044321e-007            
3.9186938e-005  2.2166156e-007            
3.9386871e-005  2.2292314e-007            
3.9586804e-005  2.2422787e-007            
3.9786738e-005  2.2498273e-007            
3.9986671e-005  2.2575702e-007            
4.0186604e-005  2.2664806e-007            
4.0386538e-005  2.2775946e-007            
4.0586471e-005  2.2894988e-007            
4.0786405e-005  2.2993145e-007            
4.0986338e-005  2.3064001e-007            
4.1186271e-005  2.3135657e-007            
4.1386205e-005  2.3226935e-007            
4.1586138e-005  2.3344002e-007            
4.1786071e-005  2.3454467e-007            
4.1986005e-005  2.3568661e-007            
4.2185938e-005  2.3659513e-007            
4.2385871e-005  2.374565e-007            
4.2585805e-005  2.3829033e-007            
4.2785738e-005  2.3910953e-007            
4.2985671e-005  2.4023445e-007            
4.3185605e-005  2.4117177e-007            
4.3385538e-005  2.4186957e-007            
4.3585471e-005  2.4266885e-007            
4.3785405e-005  2.4338662e-007            
4.3985338e-005  2.446247e-007            
4.4185272e-005  2.4569172e-007            
4.4385205e-005  2.466959e-007            
4.4585138e-005  2.4744277e-007            
4.4785072e-005  2.4837561e-007            
4.4985005e-005  2.4911852e-007            
4.5184938e-005  2.5014606e-007            
4.5384872e-005  2.5131903e-007            
4.5584805e-005  2.521605e-007            
4.5784738e-005  2.5299036e-007            
4.5984672e-005  2.5353209e-007            
4.6184605e-005  2.5430675e-007            
4.6384538e-005  2.5497726e-007            
4.6584472e-005  2.5589116e-007            
4.6784405e-005  2.5676818e-007            
4.6984339e-005  2.5759653e-007            
4.7184272e-005  2.5807364e-007            
4.7384205e-005  2.5867714e-007            
4.7584139e-005  2.5939758e-007            
4.7784072e-005  2.6028417e-007            
4.7984005e-005  2.6112895e-007            
4.8183939e-005  2.6189316e-007            
4.8383872e-005  2.6246847e-007            
4.8583805e-005  2.6297594e-007            
4.8783739e-005  2.6361925e-007            
4.8983672e-005  2.6427807e-007            
4.9183605e-005  2.6476005e-007            
4.9383539e-005  2.6530952e-007            
4.9583472e-005  2.6565259e-007            
4.9783406e-005  2.6613225e-007            
4.9983339e-005  2.6652291e-007            
5.0183272e-005  2.6679119e-007            
5.0383206e-005  2.6736475e-007            
5.0583139e-005  2.67738e-007            
5.0783072e-005  2.6813757e-007            
5.0983006e-005  2.6834543e-007            
5.1182939e-005  2.6841817e-007            
5.1382872e-005  2.6864918e-007            
5.1582806e-005  2.6910381e-007            
5.1782739e-005  2.6935525e-007            
5.1982672e-005  2.6961361e-007            
5.2182606e-005  2.6972614e-007            
5.2382539e-005  2.6975381e-007            
5.2582472e-005  2.7011188e-007            
5.2782406e-005  2.7042268e-007            
5.2982339e-005  2.705896e-007            
5.3182273e-005  2.7070174e-007            
5.3382206e-005  2.7085701e-007            
5.3582139e-005  2.7090089e-007            
5.3782073e-005  2.7090883e-007            
5.3982006e-005  2.7107397e-007            
5.4181939e-005  2.7113204e-007            
5.4381873e-005  2.7123742e-007            
5.4581806e-005  2.7099415e-007            
5.4781739e-005  2.7081094e-007            
5.4981673e-005  2.7081327e-007            
5.5181606e-005  2.7110818e-007            
5.5381539e-005  2.711546e-007            
5.5581473e-005  2.7125724e-007            
5.5781406e-005  2.7106554e-007            
5.598134e-005  2.7093894e-007            
5.6181273e-005  2.7101993e-007            
5.6381206e-005  2.7103501e-007            
5.658114e-005  2.7113228e-007            
5.6781073e-005  2.7108691e-007            
5.6981006e-005  2.7076249e-007            
5.718094e-005  2.704623e-007            
5.7380873e-005  2.7025227e-007            
5.7580806e-005  2.7024341e-007            
5.778074e-005  2.7029172e-007            
5.7980673e-005  2.7009603e-007            
5.8180606e-005  2.6962909e-007            
5.838054e-005  2.6920865e-007            
5.8580473e-005  2.6882323e-007            
5.8780407e-005  2.6891255e-007            
5.898034e-005  2.6877842e-007            
5.9180273e-005  2.6853633e-007            
5.9380207e-005  2.6784013e-007            
5.958014e-005  2.6745285e-007            
5.9780073e-005  2.6731916e-007            
5.9980007e-005  2.670942e-007            
6.017994e-005  2.6681252e-007            
6.0379873e-005  2.6643495e-007            
6.0579807e-005  2.6580662e-007            
6.077974e-005  2.6532047e-007            
6.0979673e-005  2.6514932e-007            
6.1179607e-005  2.6487149e-007            
6.137954e-005  2.6460296e-007            
6.1579473e-005  2.6411131e-007            
6.1779407e-005  2.6367617e-007            
6.197934e-005  2.631771e-007            
6.2179274e-005  2.6277688e-007            
6.2379207e-005  2.6242867e-007            
6.257914e-005  2.6232318e-007            
6.2779074e-005  2.6205716e-007            
6.2979007e-005  2.6165196e-007            
6.317894e-005  2.6116244e-007            
6.3378874e-005  2.6102909e-007            
6.3578807e-005  2.611238e-007            
6.377874e-005  2.6101734e-007            
6.3978674e-005  2.6065438e-007            
6.4178607e-005  2.6028173e-007            
6.437854e-005  2.6013435e-007            
6.4578474e-005  2.6006015e-007            
6.4778407e-005  2.598611e-007            
6.4978341e-005  2.595998e-007            
6.5178274e-005  2.5933725e-007            
6.5378207e-005  2.5930097e-007            
6.5578141e-005  2.5913734e-007            
6.5778074e-005  2.5884621e-007            
6.5978007e-005  2.5847964e-007            
6.6177941e-005  2.5847745e-007            
6.6377874e-005  2.5840939e-007            
6.6577807e-005  2.5810871e-007            
6.6777741e-005  2.5783322e-007            
6.6977674e-005  2.5794737e-007            
6.7177607e-005  2.5810826e-007            
6.7377541e-005  2.5820121e-007            
6.7577474e-005  2.5794775e-007            
6.7777407e-005  2.5784062e-007            
6.7977341e-005  2.5798725e-007            
6.8177274e-005  2.5820738e-007            
6.8377208e-005  2.5817025e-007            
6.8577141e-005  2.5813281e-007            
6.8777074e-005  2.581064e-007            
6.8977008e-005  2.581655e-007            
6.9176941e-005  2.5795769e-007            
6.9376874e-005  2.5798173e-007            
6.9576808e-005  2.5804961e-007            
6.9776741e-005  2.5823068e-007            
6.9976674e-005  2.582335e-007            
7.0176608e-005  2.5808548e-007            
7.0376541e-005  2.5802986e-007            
7.0576474e-005  2.5818611e-007            
7.0776408e-005  2.5820795e-007            
7.0976341e-005  2.5821515e-007            
7.1176275e-005  2.578601e-007            
7.1376208e-005  2.5794925e-007            
7.1576141e-005  2.5796691e-007            
7.1776075e-005  2.5797803e-007            
7.1976008e-005  2.5794039e-007            
7.2175941e-005  2.5793558e-007            
7.2375875e-005  2.5802957e-007            
7.2575808e-005  2.5797189e-007            
7.2775741e-005  2.5781219e-007            
7.2975675e-005  2.5789367e-007            
7.3175608e-005  2.5816399e-007            
7.3375541e-005  2.5842824e-007            
7.3575475e-005  2.5837718e-007            
7.3775408e-005  2.5818512e-007            
7.3975342e-005  2.5793969e-007            
7.4175275e-005  2.5809626e-007            
7.4375208e-005  2.5818586e-007            
7.4575142e-005  2.5816121e-007            
7.4775075e-005  2.5806192e-007            
7.4975008e-005  2.5827135e-007            
7.5174942e-005  2.5825923e-007            
7.5374875e-005  2.583805e-007            
7.5574808e-005  2.5834084e-007            
7.5774742e-005  2.584463e-007            
7.5974675e-005  2.5861391e-007            
7.6174608e-005  2.5869904e-007            
7.6374542e-005  2.5851336e-007            
7.6574475e-005  2.5828337e-007            
7.6774408e-005  2.5825295e-007            
7.6974342e-005  2.5837055e-007            
7.7174275e-005  2.5838592e-007            
7.7374209e-005  2.5809074e-007            
7.7574142e-005  2.5776442e-007            
7.7774075e-005  2.5767631e-007            
7.7974009e-005  2.5762676e-007            
7.8173942e-005  2.5762287e-007            
7.8373875e-005  2.5740487e-007            
7.8573809e-005  2.5711931e-007            
7.8773742e-005  2.5692717e-007            
7.8973675e-005  2.5674633e-007            
7.9173609e-005  2.5683009e-007            
7.9373542e-005  2.5678492e-007            
7.9573475e-005  2.5653576e-007            
7.9773409e-005  2.5618247e-007            
7.9973342e-005  2.5591361e-007            
8.0173276e-005  2.5546846e-007            
8.0373209e-005  2.55325e-007            
8.0573142e-005  2.5524749e-007            
8.0773076e-005  2.5523292e-007            
8.0973009e-005  2.5477426e-007            
8.1172942e-005  2.5454227e-007            
8.1372876e-005  2.5434788e-007            
8.1572809e-005  2.5443099e-007            
8.1772742e-005  2.5415022e-007            
8.1972676e-005  2.5387607e-007            
8.2172609e-005  2.5351651e-007            
8.2372542e-005  2.5301094e-007            
8.2572476e-005  2.527315e-007            
8.2772409e-005  2.5252662e-007            
8.2972343e-005  2.5226721e-007            
8.3172276e-005  2.5201248e-007            
8.3372209e-005  2.5142008e-007            
8.3572143e-005  2.5082339e-007            
8.3772076e-005  2.5038584e-007            
8.3972009e-005  2.5019819e-007            
8.4171943e-005  2.5013508e-007            
8.4371876e-005  2.4951555e-007            
8.4571809e-005  2.4911039e-007            
8.4771743e-005  2.4864672e-007            
8.4971676e-005  2.4859709e-007            
8.5171609e-005  2.4841303e-007            
8.5371543e-005  2.4815723e-007            
8.5571476e-005  2.4771849e-007            
8.5771409e-005  2.4728874e-007            
8.5971343e-005  2.4668796e-007            
8.6171276e-005  2.4623658e-007            
8.637121e-005  2.4577633e-007            
8.6571143e-005  2.4543184e-007            
8.6771076e-005  2.4524409e-007            
8.697101e-005  2.4457271e-007            
8.7170943e-005  2.4395986e-007            
8.7370876e-005  2.4351002e-007            
8.757081e-005  2.4311658e-007            
8.7770743e-005  2.4264939e-007            
8.7970676e-005  2.4211704e-007            
8.817061e-005  2.4148385e-007            
8.8370543e-005  2.4073132e-007            
8.8570476e-005  2.4028757e-007            
8.877041e-005  2.3960038e-007            
8.8970343e-005  2.3916686e-007            
8.9170277e-005  2.3866393e-007            
8.937021e-005  2.3812793e-007            
8.9570143e-005  2.3756881e-007            
8.9770077e-005  2.3708964e-007            
8.997001e-005  2.3675339e-007            
9.0169943e-005  2.3626145e-007            
9.0369877e-005  2.3565447e-007            
9.056981e-005  2.3500618e-007            
9.0769743e-005  2.3469375e-007            
9.0969677e-005  2.3431098e-007            
9.116961e-005  2.3385682e-007            
9.1369543e-005  2.3331494e-007            
9.1569477e-005  2.327858e-007            
9.176941e-005  2.324456e-007            
9.1969344e-005  2.3203977e-007            
9.2169277e-005  2.3157565e-007            
9.236921e-005  2.3094309e-007            
9.2569144e-005  2.3037222e-007            
9.2769077e-005  2.2987914e-007            
