Surface Profile             
x       y           
[m]     [m]         
0  5.0222107e-009            
1.9993336e-007  6.0794566e-009            
3.9986671e-007  6.6737552e-009            
5.9980007e-007  7.1116598e-009            
7.9973342e-007  7.6506071e-009            
9.9966678e-007  7.9601616e-009            
1.1996001e-006  8.5463581e-009            
1.3995335e-006  8.9635271e-009            
1.5994668e-006  9.5308565e-009            
1.7994002e-006  1.0270384e-008            
1.9993336e-006  1.0983391e-008            
2.1992669e-006  1.1724401e-008            
2.3992003e-006  1.2690603e-008            
2.5991336e-006  1.3767481e-008            
2.799067e-006  1.4555378e-008            
2.9990003e-006  1.5360112e-008            
3.1989337e-006  1.597334e-008            
3.398867e-006  1.667922e-008            
3.5988004e-006  1.7835013e-008            
3.7987338e-006  1.888058e-008            
3.9986671e-006  1.99875e-008            
4.1986005e-006  2.0886935e-008            
4.3985338e-006  2.1645351e-008            
4.5984672e-006  2.2458114e-008            
4.7984005e-006  2.3448644e-008            
4.9983339e-006  2.4306485e-008            
5.1982672e-006  2.5409454e-008            
5.3982006e-006  2.6387349e-008            
5.598134e-006  2.7168946e-008            
5.7980673e-006  2.7896345e-008            
5.9980007e-006  2.8643924e-008            
6.197934e-006  2.9530282e-008            
6.3978674e-006  3.0326434e-008            
6.5978007e-006  3.1183389e-008            
6.7977341e-006  3.1874207e-008            
6.9976674e-006  3.2527691e-008            
7.1976008e-006  3.3376077e-008            
7.3975342e-006  3.4315356e-008            
7.5974675e-006  3.5429319e-008            
7.7974009e-006  3.648907e-008            
7.9973342e-006  3.7328028e-008            
8.1972676e-006  3.8011843e-008            
8.3972009e-006  3.8979718e-008            
8.5971343e-006  3.9986449e-008            
8.7970676e-006  4.1365944e-008            
8.997001e-006  4.2378072e-008            
9.1969344e-006  4.3228179e-008            
9.3968677e-006  4.402658e-008            
9.5968011e-006  4.5077479e-008            
9.7967344e-006  4.6175757e-008            
9.9966678e-006  4.7259197e-008            
1.0196601e-005  4.8189625e-008            
1.0396534e-005  4.9044083e-008            
1.0596468e-005  4.9859381e-008            
1.0796401e-005  5.0605848e-008            
1.0996335e-005  5.1550836e-008            
1.1196268e-005  5.2404546e-008            
1.1396201e-005  5.3343171e-008            
1.1596135e-005  5.3898479e-008            
1.1796068e-005  5.4535374e-008            
1.1996001e-005  5.5365012e-008            
1.2195935e-005  5.6324987e-008            
1.2395868e-005  5.7275026e-008            
1.2595801e-005  5.8147616e-008            
1.2795735e-005  5.8502357e-008            
1.2995668e-005  5.9140515e-008            
1.3195601e-005  5.9846992e-008            
1.3395535e-005  6.0851838e-008            
1.3595468e-005  6.1673179e-008            
1.3795402e-005  6.2419978e-008            
1.3995335e-005  6.3001686e-008            
1.4195268e-005  6.350864e-008            
1.4395202e-005  6.4022392e-008            
1.4595135e-005  6.4881559e-008            
1.4795068e-005  6.5757881e-008            
1.4995002e-005  6.6543333e-008            
1.5194935e-005  6.6907117e-008            
1.5394868e-005  6.7322864e-008            
1.5594802e-005  6.8007288e-008            
1.5794735e-005  6.8885817e-008            
1.5994668e-005  6.9671238e-008            
1.6194602e-005  7.0188483e-008            
1.6394535e-005  7.0681409e-008            
1.6594469e-005  7.1476721e-008            
1.6794402e-005  7.2211512e-008            
1.6994335e-005  7.3003478e-008            
1.7194269e-005  7.3914388e-008            
1.7394202e-005  7.5003073e-008            
1.7594135e-005  7.5873606e-008            
1.7794069e-005  7.6711321e-008            
1.7994002e-005  7.7655008e-008            
1.8193935e-005  7.8965284e-008            
1.8393869e-005  8.019033e-008            
1.8593802e-005  8.123305e-008            
1.8793735e-005  8.2048587e-008            
1.8993669e-005  8.2905039e-008            
1.9193602e-005  8.4005195e-008            
1.9393535e-005  8.5270753e-008            
1.9593469e-005  8.6399068e-008            
1.9793402e-005  8.7542443e-008            
1.9993336e-005  8.8565702e-008            
2.0193269e-005  8.9506332e-008            
2.0393202e-005  9.0482191e-008            
2.0593136e-005  9.1311503e-008            
2.0793069e-005  9.2350054e-008            
2.0993002e-005  9.3279513e-008            
2.1192936e-005  9.4194752e-008            
2.1392869e-005  9.5136005e-008            
2.1592802e-005  9.5878153e-008            
2.1792736e-005  9.6681386e-008            
2.1992669e-005  9.769346e-008            
2.2192602e-005  9.86273e-008            
2.2392536e-005  9.9498672e-008            
2.2592469e-005  1.0000663e-007            
2.2792403e-005  1.0058236e-007            
2.2992336e-005  1.0145782e-007            
2.3192269e-005  1.0245009e-007            
2.3392203e-005  1.0335369e-007            
2.3592136e-005  1.0421963e-007            
2.3792069e-005  1.049422e-007            
2.3992003e-005  1.0581555e-007            
2.4191936e-005  1.0671396e-007            
2.4391869e-005  1.0754067e-007            
2.4591803e-005  1.085734e-007            
2.4791736e-005  1.093104e-007            
2.4991669e-005  1.1010501e-007            
2.5191603e-005  1.1084385e-007            
2.5391536e-005  1.1158444e-007            
2.5591469e-005  1.1253059e-007            
2.5791403e-005  1.1342598e-007            
2.5991336e-005  1.1428509e-007            
2.619127e-005  1.1515662e-007            
2.6391203e-005  1.1601121e-007            
2.6591136e-005  1.1690218e-007            
2.679107e-005  1.178256e-007            
2.6991003e-005  1.1863558e-007            
2.7190936e-005  1.1963516e-007            
2.739087e-005  1.2058585e-007            
2.7590803e-005  1.2172589e-007            
2.7790736e-005  1.2285862e-007            
2.799067e-005  1.2386743e-007            
2.8190603e-005  1.251272e-007            
2.8390536e-005  1.261972e-007            
2.859047e-005  1.2743662e-007            
2.8790403e-005  1.2846324e-007            
2.8990337e-005  1.2967669e-007            
2.919027e-005  1.3115108e-007            
2.9390203e-005  1.324668e-007            
2.9590137e-005  1.3344368e-007            
2.979007e-005  1.3433421e-007            
2.9990003e-005  1.3545672e-007            
3.0189937e-005  1.3673743e-007            
3.038987e-005  1.378932e-007            
3.0589803e-005  1.3890721e-007            
3.0789737e-005  1.4005877e-007            
3.098967e-005  1.4126115e-007            
3.1189603e-005  1.4238854e-007            
3.1389537e-005  1.4350504e-007            
3.158947e-005  1.4479967e-007            
3.1789404e-005  1.4629568e-007            
3.1989337e-005  1.4759566e-007            
3.218927e-005  1.4864899e-007            
3.2389204e-005  1.4983179e-007            
3.2589137e-005  1.5105258e-007            
3.278907e-005  1.5229624e-007            
3.2989004e-005  1.5366852e-007            
3.3188937e-005  1.5510903e-007            
3.338887e-005  1.5653548e-007            
3.3588804e-005  1.5815348e-007            
3.3788737e-005  1.5955671e-007            
3.398867e-005  1.6103099e-007            
3.4188604e-005  1.62269e-007            
3.4388537e-005  1.6367612e-007            
3.458847e-005  1.6508435e-007            
3.4788404e-005  1.6639511e-007            
3.4988337e-005  1.6798546e-007            
3.5188271e-005  1.6954131e-007            
3.5388204e-005  1.711351e-007            
3.5588137e-005  1.7239512e-007            
3.5788071e-005  1.73513e-007            
3.5988004e-005  1.749219e-007            
3.6187937e-005  1.7636408e-007            
3.6387871e-005  1.7764573e-007            
3.6587804e-005  1.7922372e-007            
3.6787737e-005  1.8084089e-007            
3.6987671e-005  1.8233138e-007            
3.7187604e-005  1.839751e-007            
3.7387537e-005  1.8550012e-007            
3.7587471e-005  1.8713447e-007            
3.7787404e-005  1.8881906e-007            
3.7987338e-005  1.9041655e-007            
3.8187271e-005  1.9194923e-007            
3.8387204e-005  1.9358617e-007            
3.8587138e-005  1.952018e-007            
3.8787071e-005  1.9696617e-007            
3.8987004e-005  1.9847932e-007            
3.9186938e-005  1.9981315e-007            
3.9386871e-005  2.0125396e-007            
3.9586804e-005  2.0258267e-007            
3.9786738e-005  2.0400106e-007            
3.9986671e-005  2.0551188e-007            
4.0186604e-005  2.0711815e-007            
4.0386538e-005  2.0876357e-007            
4.0586471e-005  2.0999011e-007            
4.0786405e-005  2.1142305e-007            
4.0986338e-005  2.128552e-007            
4.1186271e-005  2.1429429e-007            
4.1386205e-005  2.1586248e-007            
4.1586138e-005  2.1753763e-007            
4.1786071e-005  2.1942827e-007            
4.1986005e-005  2.2119464e-007            
4.2185938e-005  2.2307369e-007            
4.2385871e-005  2.2483477e-007            
4.2585805e-005  2.26357e-007            
4.2785738e-005  2.2807163e-007            
4.2985671e-005  2.2989584e-007            
4.3185605e-005  2.3191401e-007            
4.3385538e-005  2.3394481e-007            
4.3585471e-005  2.3560949e-007            
4.3785405e-005  2.3736592e-007            
4.3985338e-005  2.3912785e-007            
4.4185272e-005  2.4082527e-007            
4.4385205e-005  2.4266449e-007            
4.4585138e-005  2.442651e-007            
4.4785072e-005  2.4600999e-007            
4.4985005e-005  2.4790639e-007            
4.5184938e-005  2.49774e-007            
4.5384872e-005  2.5140028e-007            
4.5584805e-005  2.530756e-007            
4.5784738e-005  2.5465094e-007            
4.5984672e-005  2.5621175e-007            
4.6184605e-005  2.5771982e-007            
4.6384538e-005  2.5932108e-007            
4.6584472e-005  2.6126473e-007            
4.6784405e-005  2.6319114e-007            
4.6984339e-005  2.6465963e-007            
4.7184272e-005  2.6621458e-007            
4.7384205e-005  2.6791398e-007            
4.7584139e-005  2.699209e-007            
4.7784072e-005  2.7188656e-007            
4.7984005e-005  2.7381706e-007            
4.8183939e-005  2.7567024e-007            
4.8383872e-005  2.7750881e-007            
4.8583805e-005  2.7939076e-007            
4.8783739e-005  2.8130325e-007            
4.8983672e-005  2.8310761e-007            
4.9183605e-005  2.8503941e-007            
4.9383539e-005  2.8687169e-007            
4.9583472e-005  2.8863335e-007            
4.9783406e-005  2.9028802e-007            
4.9983339e-005  2.9201671e-007            
5.0183272e-005  2.9390375e-007            
5.0383206e-005  2.9564065e-007            
5.0583139e-005  2.9714472e-007            
5.0783072e-005  2.987228e-007            
5.0983006e-005  3.002284e-007            
5.1182939e-005  3.0204721e-007            
5.1382872e-005  3.0394376e-007            
5.1582806e-005  3.0546579e-007            
5.1782739e-005  3.0714523e-007            
5.1982672e-005  3.0861284e-007            
5.2182606e-005  3.1020269e-007            
5.2382539e-005  3.1188451e-007            
5.2582472e-005  3.1349461e-007            
5.2782406e-005  3.1506359e-007            
5.2982339e-005  3.1681683e-007            
5.3182273e-005  3.1816407e-007            
5.3382206e-005  3.1970366e-007            
5.3582139e-005  3.2102026e-007            
5.3782073e-005  3.2256111e-007            
5.3982006e-005  3.2381992e-007            
5.4181939e-005  3.2500933e-007            
5.4381873e-005  3.2620676e-007            
5.4581806e-005  3.2755142e-007            
5.4781739e-005  3.2893211e-007            
5.4981673e-005  3.3013186e-007            
5.5181606e-005  3.3119406e-007            
5.5381539e-005  3.3222334e-007            
5.5581473e-005  3.3320856e-007            
5.5781406e-005  3.3435133e-007            
5.598134e-005  3.3536413e-007            
5.6181273e-005  3.3621313e-007            
5.6381206e-005  3.3691481e-007            
5.658114e-005  3.3787385e-007            
5.6781073e-005  3.3861681e-007            
5.6981006e-005  3.3952759e-007            
5.718094e-005  3.4027792e-007            
5.7380873e-005  3.4108486e-007            
5.7580806e-005  3.420288e-007            
5.778074e-005  3.427644e-007            
5.7980673e-005  3.4337349e-007            
5.8180606e-005  3.4408372e-007            
5.838054e-005  3.4462147e-007            
5.8580473e-005  3.4529794e-007            
5.8780407e-005  3.4574331e-007            
5.898034e-005  3.4611841e-007            
5.9180273e-005  3.4690263e-007            
5.9380207e-005  3.4744452e-007            
5.958014e-005  3.479694e-007            
5.9780073e-005  3.4843196e-007            
5.9980007e-005  3.488177e-007            
6.017994e-005  3.4940116e-007            
6.0379873e-005  3.4971808e-007            
6.0579807e-005  3.5012751e-007            
6.077974e-005  3.5039515e-007            
6.0979673e-005  3.5092158e-007            
6.1179607e-005  3.5142219e-007            
6.137954e-005  3.5179806e-007            
6.1579473e-005  3.5207442e-007            
6.1779407e-005  3.5247742e-007            
6.197934e-005  3.5294134e-007            
6.2179274e-005  3.5342913e-007            
6.2379207e-005  3.537032e-007            
6.257914e-005  3.5399114e-007            
6.2779074e-005  3.5430838e-007            
6.2979007e-005  3.5458556e-007            
6.317894e-005  3.5462775e-007            
6.3378874e-005  3.5474155e-007            
6.3578807e-005  3.548513e-007            
6.377874e-005  3.5502998e-007            
6.3978674e-005  3.5500701e-007            
6.4178607e-005  3.5485776e-007            
6.437854e-005  3.5484704e-007            
6.4578474e-005  3.5505388e-007            
6.4778407e-005  3.5534205e-007            
6.4978341e-005  3.5572273e-007            
6.5178274e-005  3.5575433e-007            
6.5378207e-005  3.5595921e-007            
6.5578141e-005  3.5618986e-007            
6.5778074e-005  3.5659099e-007            
6.5978007e-005  3.5710005e-007            
6.6177941e-005  3.575117e-007            
6.6377874e-005  3.5760771e-007            
6.6577807e-005  3.5779303e-007            
6.6777741e-005  3.5799608e-007            
6.6977674e-005  3.5864648e-007            
6.7177607e-005  3.5908846e-007            
6.7377541e-005  3.5960267e-007            
6.7577474e-005  3.598116e-007            
6.7777407e-005  3.6003745e-007            
6.7977341e-005  3.6035772e-007            
6.8177274e-005  3.6073473e-007            
6.8377208e-005  3.6110219e-007            
6.8577141e-005  3.6149139e-007            
6.8777074e-005  3.6155818e-007            
6.8977008e-005  3.6166145e-007            
6.9176941e-005  3.6181384e-007            
6.9376874e-005  3.6218576e-007            
6.9576808e-005  3.6261624e-007            
6.9776741e-005  3.6269713e-007            
6.9976674e-005  3.6264303e-007            
7.0176608e-005  3.6271571e-007            
7.0376541e-005  3.6295042e-007            
7.0576474e-005  3.6336952e-007            
7.0776408e-005  3.6383755e-007            
7.0976341e-005  3.6415454e-007            
7.1176275e-005  3.6420122e-007            
7.1376208e-005  3.6433023e-007            
7.1576141e-005  3.6442388e-007            
7.1776075e-005  3.6488712e-007            
7.1976008e-005  3.6537079e-007            
7.2175941e-005  3.6556293e-007            
7.2375875e-005  3.6564304e-007            
7.2575808e-005  3.6564939e-007            
7.2775741e-005  3.6599278e-007            
7.2975675e-005  3.6647207e-007            
7.3175608e-005  3.6683839e-007            
7.3375541e-005  3.6706686e-007            
7.3575475e-005  3.6711065e-007            
7.3775408e-005  3.6710633e-007            
7.3975342e-005  3.672011e-007            
7.4175275e-005  3.6737782e-007            
7.4375208e-005  3.6755697e-007            
7.4575142e-005  3.6775294e-007            
7.4775075e-005  3.6744082e-007            
7.4975008e-005  3.6717761e-007            
7.5174942e-005  3.6693261e-007            
7.5374875e-005  3.6702505e-007            
7.5574808e-005  3.6698395e-007            
7.5774742e-005  3.6688466e-007            
7.5974675e-005  3.6655734e-007            
7.6174608e-005  3.6616281e-007            
7.6374542e-005  3.6601774e-007            
7.6574475e-005  3.6585758e-007            
7.6774408e-005  3.6571258e-007            
7.6974342e-005  3.6558166e-007            
7.7174275e-005  3.6517934e-007            
7.7374209e-005  3.6471308e-007            
7.7574142e-005  3.6421881e-007            
7.7774075e-005  3.6382898e-007            
7.7974009e-005  3.638075e-007            
7.8173942e-005  3.6379622e-007            
7.8373875e-005  3.6339167e-007            
7.8573809e-005  3.6311951e-007            
7.8773742e-005  3.6274815e-007            
7.8973675e-005  3.6247414e-007            
7.9173609e-005  3.624564e-007            
7.9373542e-005  3.62375e-007            
7.9573475e-005  3.6219824e-007            
7.9773409e-005  3.617485e-007            
7.9973342e-005  3.6123475e-007            
8.0173276e-005  3.6098636e-007            
8.0373209e-005  3.6078387e-007            
8.0573142e-005  3.607035e-007            
8.0773076e-005  3.6038027e-007            
8.0973009e-005  3.5987198e-007            
8.1172942e-005  3.5935727e-007            
8.1372876e-005  3.590878e-007            
8.1572809e-005  3.5897648e-007            
8.1772742e-005  3.5882638e-007            
8.1972676e-005  3.5843178e-007            
8.2172609e-005  3.5797079e-007            
8.2372542e-005  3.5776314e-007            
8.2572476e-005  3.5734874e-007            
8.2772409e-005  3.5723803e-007            
8.2972343e-005  3.5727035e-007            
8.3172276e-005  3.5715252e-007            
8.3372209e-005  3.5691137e-007            
8.3572143e-005  3.5655744e-007            
8.3772076e-005  3.5625394e-007            
8.3972009e-005  3.5635247e-007            
8.4171943e-005  3.5653412e-007            
8.4371876e-005  3.5654279e-007            
8.4571809e-005  3.5621076e-007            
8.4771743e-005  3.5592523e-007            
8.4971676e-005  3.5570928e-007            
8.5171609e-005  3.5568219e-007            
8.5371543e-005  3.5578245e-007            
8.5571476e-005  3.555386e-007            
8.5771409e-005  3.5523905e-007            
8.5971343e-005  3.5491436e-007            
8.6171276e-005  3.5456031e-007            
8.637121e-005  3.5453027e-007            
8.6571143e-005  3.5456537e-007            
8.6771076e-005  3.5452681e-007            
8.697101e-005  3.5445729e-007            
8.7170943e-005  3.5415411e-007            
8.7370876e-005  3.539606e-007            
8.757081e-005  3.540223e-007            
8.7770743e-005  3.5424116e-007            
8.7970676e-005  3.5448087e-007            
8.817061e-005  3.5447437e-007            
8.8370543e-005  3.5430334e-007            
8.8570476e-005  3.5448523e-007            
8.877041e-005  3.5470047e-007            
8.8970343e-005  3.5494981e-007            
8.9170277e-005  3.551496e-007            
8.937021e-005  3.5530751e-007            
8.9570143e-005  3.5534664e-007            
8.9770077e-005  3.5522766e-007            
8.997001e-005  3.5524748e-007            
9.0169943e-005  3.5572288e-007            
9.0369877e-005  3.5613499e-007            
9.056981e-005  3.5618221e-007            
9.0769743e-005  3.5613319e-007            
9.0969677e-005  3.5623234e-007            
9.116961e-005  3.5679899e-007            
9.1369543e-005  3.5746505e-007            
9.1569477e-005  3.5775811e-007            
9.176941e-005  3.5792477e-007            
9.1969344e-005  3.5804472e-007            
9.2169277e-005  3.5851049e-007            
9.236921e-005  3.5892968e-007            
9.2569144e-005  3.5920069e-007            
9.2769077e-005  3.5944946e-007            
9.296901e-005  3.5950716e-007            
