Surface Profile             
x       y           
[m]     [m]         
0  -1.3073026e-010            
1.9993336e-007  -7.052111e-010            
3.9986671e-007  -1.7709092e-009            
5.9980007e-007  -1.9093077e-009            
7.9973342e-007  -2.7347165e-009            
9.9966678e-007  -3.2796829e-009            
1.1996001e-006  -3.518395e-009            
1.3995335e-006  -3.849085e-009            
1.5994668e-006  -4.5494795e-009            
1.7994002e-006  -5.182685e-009            
1.9993336e-006  -5.7348347e-009            
2.1992669e-006  -6.2608462e-009            
2.3992003e-006  -6.8769227e-009            
2.5991336e-006  -7.637711e-009            
2.799067e-006  -8.312533e-009            
2.9990003e-006  -9.0207175e-009            
3.1989337e-006  -9.5830851e-009            
3.398867e-006  -1.0177824e-008            
3.5988004e-006  -1.0882253e-008            
3.7987338e-006  -1.149745e-008            
3.9986671e-006  -1.213416e-008            
4.1986005e-006  -1.2848786e-008            
4.3985338e-006  -1.3595247e-008            
4.5984672e-006  -1.4303605e-008            
4.7984005e-006  -1.4853219e-008            
4.9983339e-006  -1.5677611e-008            
5.1982672e-006  -1.6536924e-008            
5.3982006e-006  -1.7303029e-008            
5.598134e-006  -1.8087e-008            
5.7980673e-006  -1.8879635e-008            
5.9980007e-006  -1.97985e-008            
6.197934e-006  -2.0631406e-008            
6.3978674e-006  -2.0892704e-008            
6.5978007e-006  -2.1469157e-008            
6.7977341e-006  -2.2020835e-008            
6.9976674e-006  -2.2602998e-008            
7.1976008e-006  -2.2987219e-008            
7.3975342e-006  -2.3249828e-008            
7.5974675e-006  -2.352136e-008            
7.7974009e-006  -2.4009751e-008            
7.9973342e-006  -2.4501306e-008            
8.1972676e-006  -2.4806716e-008            
8.3972009e-006  -2.5103006e-008            
8.5971343e-006  -2.5466981e-008            
8.7970676e-006  -2.5872813e-008            
8.997001e-006  -2.6166404e-008            
9.1969344e-006  -2.6372966e-008            
9.3968677e-006  -2.6839294e-008            
9.5968011e-006  -2.73557e-008            
9.7967344e-006  -2.7583636e-008            
9.9966678e-006  -2.7509825e-008            
1.0196601e-005  -2.7690571e-008            
1.0396534e-005  -2.827952e-008            
1.0596468e-005  -2.8704096e-008            
1.0796401e-005  -2.8892253e-008            
1.0996335e-005  -2.8814704e-008            
1.1196268e-005  -2.8856568e-008            
1.1396201e-005  -2.9073416e-008            
1.1596135e-005  -2.9379133e-008            
1.1796068e-005  -2.9289649e-008            
1.1996001e-005  -2.9173861e-008            
1.2195935e-005  -2.9285575e-008            
1.2395868e-005  -2.9624366e-008            
1.2595801e-005  -2.9613374e-008            
1.2795735e-005  -2.9680503e-008            
1.2995668e-005  -2.9889693e-008            
1.3195601e-005  -3.01456e-008            
1.3395535e-005  -3.0403863e-008            
1.3595468e-005  -3.0403269e-008            
1.3795402e-005  -3.0545208e-008            
1.3995335e-005  -3.0951962e-008            
1.4195268e-005  -3.1328495e-008            
1.4395202e-005  -3.1293956e-008            
1.4595135e-005  -3.1258891e-008            
1.4795068e-005  -3.1489552e-008            
1.4995002e-005  -3.1985087e-008            
1.5194935e-005  -3.2388454e-008            
1.5394868e-005  -3.2427501e-008            
1.5594802e-005  -3.2663526e-008            
1.5794735e-005  -3.298913e-008            
1.5994668e-005  -3.3374563e-008            
1.6194602e-005  -3.3549865e-008            
1.6394535e-005  -3.3874175e-008            
1.6594469e-005  -3.419205e-008            
1.6794402e-005  -3.4451978e-008            
1.6994335e-005  -3.4727225e-008            
1.7194269e-005  -3.4943133e-008            
1.7394202e-005  -3.5288468e-008            
1.7594135e-005  -3.5872497e-008            
1.7794069e-005  -3.630532e-008            
1.7994002e-005  -3.6426844e-008            
1.8193935e-005  -3.6761356e-008            
1.8393869e-005  -3.7130099e-008            
1.8593802e-005  -3.7716406e-008            
1.8793735e-005  -3.8039884e-008            
1.8993669e-005  -3.8199993e-008            
1.9193602e-005  -3.8561191e-008            
1.9393535e-005  -3.9030237e-008            
1.9593469e-005  -3.9489195e-008            
1.9793402e-005  -3.9913984e-008            
1.9993336e-005  -4.0270503e-008            
2.0193269e-005  -4.090354e-008            
2.0393202e-005  -4.1357391e-008            
2.0593136e-005  -4.1658919e-008            
2.0793069e-005  -4.1970785e-008            
2.0993002e-005  -4.2475145e-008            
2.1192936e-005  -4.3126833e-008            
2.1392869e-005  -4.3642456e-008            
2.1592802e-005  -4.3872918e-008            
2.1792736e-005  -4.4128431e-008            
2.1992669e-005  -4.4645532e-008            
2.2192602e-005  -4.5125923e-008            
2.2392536e-005  -4.5618272e-008            
2.2592469e-005  -4.587778e-008            
2.2792403e-005  -4.6128897e-008            
2.2992336e-005  -4.6612929e-008            
2.3192269e-005  -4.6808673e-008            
2.3392203e-005  -4.7016828e-008            
2.3592136e-005  -4.7435188e-008            
2.3792069e-005  -4.7830881e-008            
2.3992003e-005  -4.8251015e-008            
2.4191936e-005  -4.8590925e-008            
2.4391869e-005  -4.8918093e-008            
2.4591803e-005  -4.9326503e-008            
2.4791736e-005  -4.9677208e-008            
2.4991669e-005  -5.0020057e-008            
2.5191603e-005  -5.0378312e-008            
2.5391536e-005  -5.0887398e-008            
2.5591469e-005  -5.141659e-008            
2.5791403e-005  -5.1561615e-008            
2.5991336e-005  -5.2060268e-008            
2.619127e-005  -5.2432883e-008            
2.6391203e-005  -5.2899409e-008            
2.6591136e-005  -5.3494509e-008            
2.679107e-005  -5.3799016e-008            
2.6991003e-005  -5.4294283e-008            
2.7190936e-005  -5.4738689e-008            
2.739087e-005  -5.5215211e-008            
2.7590803e-005  -5.5749709e-008            
2.7790736e-005  -5.6274295e-008            
2.799067e-005  -5.6941411e-008            
2.8190603e-005  -5.7394808e-008            
2.8390536e-005  -5.7972299e-008            
2.859047e-005  -5.8505677e-008            
2.8790403e-005  -5.9143265e-008            
2.8990337e-005  -5.9790529e-008            
2.919027e-005  -6.0315145e-008            
2.9390203e-005  -6.07479e-008            
2.9590137e-005  -6.1240046e-008            
2.979007e-005  -6.1774724e-008            
2.9990003e-005  -6.2319932e-008            
3.0189937e-005  -6.2770134e-008            
3.038987e-005  -6.3286874e-008            
3.0589803e-005  -6.3655249e-008            
3.0789737e-005  -6.4048283e-008            
3.098967e-005  -6.4520052e-008            
3.1189603e-005  -6.5205515e-008            
3.1389537e-005  -6.6039954e-008            
3.158947e-005  -6.667886e-008            
3.1789404e-005  -6.7501866e-008            
3.1989337e-005  -6.8269864e-008            
3.218927e-005  -6.9057581e-008            
3.2389204e-005  -7.0075912e-008            
3.2589137e-005  -7.0760411e-008            
3.278907e-005  -7.1633669e-008            
3.2989004e-005  -7.2437278e-008            
3.3188937e-005  -7.3299865e-008            
3.338887e-005  -7.4194767e-008            
3.3588804e-005  -7.4962762e-008            
3.3788737e-005  -7.5690926e-008            
3.398867e-005  -7.671101e-008            
3.4188604e-005  -7.7735164e-008            
3.4388537e-005  -7.8862667e-008            
3.458847e-005  -7.9743624e-008            
3.4788404e-005  -8.0785168e-008            
3.4988337e-005  -8.1900026e-008            
3.5188271e-005  -8.3101212e-008            
3.5388204e-005  -8.4000384e-008            
3.5588137e-005  -8.4950054e-008            
3.5788071e-005  -8.5886623e-008            
3.5988004e-005  -8.6998308e-008            
3.6187937e-005  -8.8056061e-008            
3.6387871e-005  -8.9073854e-008            
3.6587804e-005  -8.9844914e-008            
3.6787737e-005  -9.1080506e-008            
3.6987671e-005  -9.2098324e-008            
3.7187604e-005  -9.3099673e-008            
3.7387537e-005  -9.3952845e-008            
3.7587471e-005  -9.485284e-008            
3.7787404e-005  -9.5821038e-008            
3.7987338e-005  -9.6672849e-008            
3.8187271e-005  -9.7425257e-008            
3.8387204e-005  -9.8054009e-008            
3.8587138e-005  -9.9020023e-008            
3.8787071e-005  -1.0001525e-007            
3.8987004e-005  -1.0086012e-007            
3.9186938e-005  -1.0179102e-007            
3.9386871e-005  -1.0243353e-007            
3.9586804e-005  -1.0341692e-007            
3.9786738e-005  -1.0428838e-007            
3.9986671e-005  -1.0518359e-007            
4.0186604e-005  -1.0610397e-007            
4.0386538e-005  -1.0705119e-007            
4.0586471e-005  -1.0782433e-007            
4.0786405e-005  -1.0877376e-007            
4.0986338e-005  -1.0965106e-007            
4.1186271e-005  -1.1068455e-007            
4.1386205e-005  -1.1193246e-007            
4.1586138e-005  -1.1293212e-007            
4.1786071e-005  -1.1390074e-007            
4.1986005e-005  -1.1482895e-007            
4.2185938e-005  -1.1598469e-007            
4.2385871e-005  -1.1709794e-007            
4.2585805e-005  -1.1820005e-007            
4.2785738e-005  -1.1909266e-007            
4.2985671e-005  -1.2018096e-007            
4.3185605e-005  -1.2120106e-007            
4.3385538e-005  -1.2229252e-007            
4.3585471e-005  -1.2339416e-007            
4.3785405e-005  -1.2450038e-007            
4.3985338e-005  -1.2556491e-007            
4.4185272e-005  -1.2652274e-007            
4.4385205e-005  -1.2741537e-007            
4.4585138e-005  -1.2835249e-007            
4.4785072e-005  -1.296598e-007            
4.4985005e-005  -1.3089351e-007            
4.5184938e-005  -1.3169879e-007            
4.5384872e-005  -1.3268795e-007            
4.5584805e-005  -1.3362819e-007            
4.5784738e-005  -1.3479496e-007            
4.5984672e-005  -1.3597736e-007            
4.6184605e-005  -1.3707122e-007            
4.6384538e-005  -1.3823619e-007            
4.6584472e-005  -1.3945364e-007            
4.6784405e-005  -1.4050541e-007            
4.6984339e-005  -1.4171883e-007            
4.7184272e-005  -1.4295144e-007            
4.7384205e-005  -1.4406961e-007            
4.7584139e-005  -1.4530642e-007            
4.7784072e-005  -1.4612036e-007            
4.7984005e-005  -1.4714671e-007            
4.8183939e-005  -1.4835605e-007            
4.8383872e-005  -1.4946906e-007            
4.8583805e-005  -1.5057082e-007            
4.8783739e-005  -1.5159994e-007            
4.8983672e-005  -1.5276016e-007            
4.9183605e-005  -1.5374928e-007            
4.9383539e-005  -1.5488659e-007            
4.9583472e-005  -1.56032e-007            
4.9783406e-005  -1.5717684e-007            
4.9983339e-005  -1.5815914e-007            
5.0183272e-005  -1.5899083e-007            
5.0383206e-005  -1.6003013e-007            
5.0583139e-005  -1.6112255e-007            
5.0783072e-005  -1.6222926e-007            
5.0983006e-005  -1.6301148e-007            
5.1182939e-005  -1.6388396e-007            
5.1382872e-005  -1.6468127e-007            
5.1582806e-005  -1.6563794e-007            
5.1782739e-005  -1.664922e-007            
5.1982672e-005  -1.6727633e-007            
5.2182606e-005  -1.680597e-007            
5.2382539e-005  -1.6881391e-007            
5.2582472e-005  -1.6959135e-007            
5.2782406e-005  -1.7029237e-007            
5.2982339e-005  -1.7109977e-007            
5.3182273e-005  -1.7183315e-007            
5.3382206e-005  -1.7264062e-007            
5.3582139e-005  -1.7326753e-007            
5.3782073e-005  -1.7389279e-007            
5.3982006e-005  -1.7461487e-007            
5.4181939e-005  -1.7542873e-007            
5.4381873e-005  -1.7617924e-007            
5.4581806e-005  -1.767468e-007            
5.4781739e-005  -1.7738466e-007            
5.4981673e-005  -1.7810425e-007            
5.5181606e-005  -1.7880027e-007            
5.5381539e-005  -1.7955572e-007            
5.5581473e-005  -1.8024139e-007            
5.5781406e-005  -1.8097921e-007            
5.598134e-005  -1.8176319e-007            
5.6181273e-005  -1.8253239e-007            
5.6381206e-005  -1.8320166e-007            
5.658114e-005  -1.8401168e-007            
5.6781073e-005  -1.8483103e-007            
5.6981006e-005  -1.856204e-007            
5.718094e-005  -1.8633159e-007            
5.7380873e-005  -1.8694227e-007            
5.7580806e-005  -1.8754052e-007            
5.778074e-005  -1.8833434e-007            
5.7980673e-005  -1.8916458e-007            
5.8180606e-005  -1.8997968e-007            
5.838054e-005  -1.9082643e-007            
5.8580473e-005  -1.9159938e-007            
5.8780407e-005  -1.9234408e-007            
5.898034e-005  -1.9321335e-007            
5.9180273e-005  -1.9393436e-007            
5.9380207e-005  -1.947774e-007            
5.958014e-005  -1.9558585e-007            
5.9780073e-005  -1.9644123e-007            
5.9980007e-005  -1.9711336e-007            
6.017994e-005  -1.9798142e-007            
6.0379873e-005  -1.9885511e-007            
6.0579807e-005  -1.9982523e-007            
6.077974e-005  -2.0080858e-007            
6.0979673e-005  -2.0163538e-007            
6.1179607e-005  -2.0241282e-007            
6.137954e-005  -2.0330102e-007            
6.1579473e-005  -2.0427973e-007            
6.1779407e-005  -2.0535063e-007            
6.197934e-005  -2.0620273e-007            
6.2179274e-005  -2.0718087e-007            
6.2379207e-005  -2.0816436e-007            
6.257914e-005  -2.0897167e-007            
6.2779074e-005  -2.0992923e-007            
6.2979007e-005  -2.1086431e-007            
6.317894e-005  -2.1177751e-007            
6.3378874e-005  -2.1257093e-007            
6.3578807e-005  -2.1312015e-007            
6.377874e-005  -2.1400266e-007            
6.3978674e-005  -2.1481155e-007            
6.4178607e-005  -2.1581837e-007            
6.437854e-005  -2.1670746e-007            
6.4578474e-005  -2.1730408e-007            
6.4778407e-005  -2.1809538e-007            
6.4978341e-005  -2.1889454e-007            
6.5178274e-005  -2.1977487e-007            
6.5378207e-005  -2.2069494e-007            
6.5578141e-005  -2.2156599e-007            
6.5778074e-005  -2.2234805e-007            
6.5978007e-005  -2.2292395e-007            
6.6177941e-005  -2.2379348e-007            
6.6377874e-005  -2.2460104e-007            
6.6577807e-005  -2.254879e-007            
6.6777741e-005  -2.261794e-007            
6.6977674e-005  -2.2688372e-007            
6.7177607e-005  -2.2742397e-007            
6.7377541e-005  -2.2808016e-007            
6.7577474e-005  -2.2871418e-007            
6.7777407e-005  -2.2934295e-007            
6.7977341e-005  -2.2980261e-007            
6.8177274e-005  -2.3037949e-007            
6.8377208e-005  -2.3071921e-007            
6.8577141e-005  -2.3134447e-007            
6.8777074e-005  -2.3201559e-007            
6.8977008e-005  -2.3272544e-007            
6.9176941e-005  -2.3326994e-007            
6.9376874e-005  -2.3350597e-007            
6.9576808e-005  -2.3404758e-007            
6.9776741e-005  -2.3472397e-007            
6.9976674e-005  -2.3521043e-007            
7.0176608e-005  -2.358761e-007            
7.0376541e-005  -2.3627646e-007            
7.0576474e-005  -2.3685014e-007            
7.0776408e-005  -2.3744909e-007            
7.0976341e-005  -2.3804305e-007            
7.1176275e-005  -2.3852745e-007            
7.1376208e-005  -2.3896206e-007            
7.1576141e-005  -2.3938538e-007            
7.1776075e-005  -2.3966795e-007            
7.1976008e-005  -2.3993639e-007            
7.2175941e-005  -2.4049788e-007            
7.2375875e-005  -2.4106578e-007            
7.2575808e-005  -2.4151541e-007            
7.2775741e-005  -2.4172234e-007            
7.2975675e-005  -2.4194817e-007            
7.3175608e-005  -2.4240846e-007            
7.3375541e-005  -2.4293749e-007            
7.3575475e-005  -2.4322931e-007            
7.3775408e-005  -2.4342063e-007            
7.3975342e-005  -2.4372302e-007            
7.4175275e-005  -2.441371e-007            
7.4375208e-005  -2.4438807e-007            
7.4575142e-005  -2.4446794e-007            
7.4775075e-005  -2.4452242e-007            
7.4975008e-005  -2.44698e-007            
7.5174942e-005  -2.4482617e-007            
7.5374875e-005  -2.4474064e-007            
7.5574808e-005  -2.4474756e-007            
7.5774742e-005  -2.4479998e-007            
7.5974675e-005  -2.4505808e-007            
7.6174608e-005  -2.4495612e-007            
7.6374542e-005  -2.4491512e-007            
7.6574475e-005  -2.4494182e-007            
7.6774408e-005  -2.4513796e-007            
7.6974342e-005  -2.4546465e-007            
7.7174275e-005  -2.4551326e-007            
7.7374209e-005  -2.4547932e-007            
7.7574142e-005  -2.4560987e-007            
7.7774075e-005  -2.4572154e-007            
7.7974009e-005  -2.4577582e-007            
7.8173942e-005  -2.457587e-007            
7.8373875e-005  -2.459259e-007            
7.8573809e-005  -2.4629174e-007            
7.8773742e-005  -2.4647897e-007            
7.8973675e-005  -2.4664614e-007            
7.9173609e-005  -2.4687071e-007            
7.9373542e-005  -2.4707687e-007            
7.9573475e-005  -2.4742847e-007            
7.9773409e-005  -2.4736756e-007            
7.9973342e-005  -2.4754118e-007            
8.0173276e-005  -2.4770797e-007            
8.0373209e-005  -2.4771346e-007            
8.0573142e-005  -2.4790287e-007            
8.0773076e-005  -2.478452e-007            
8.0973009e-005  -2.4801057e-007            
8.1172942e-005  -2.4829981e-007            
8.1372876e-005  -2.4841238e-007            
8.1572809e-005  -2.4820348e-007            
8.1772742e-005  -2.4810302e-007            
8.1972676e-005  -2.4792089e-007            
8.2172609e-005  -2.4793691e-007            
8.2372542e-005  -2.479134e-007            
8.2572476e-005  -2.4778042e-007            
8.2772409e-005  -2.4774496e-007            
8.2972343e-005  -2.4752246e-007            
8.3172276e-005  -2.4722089e-007            
8.3372209e-005  -2.4702254e-007            
8.3572143e-005  -2.4685864e-007            
8.3772076e-005  -2.4687501e-007            
8.3972009e-005  -2.4671361e-007            
8.4171943e-005  -2.4649315e-007            
8.4371876e-005  -2.4623249e-007            
8.4571809e-005  -2.4605629e-007            
8.4771743e-005  -2.4587744e-007            
8.4971676e-005  -2.4572559e-007            
8.5171609e-005  -2.4546868e-007            
8.5371543e-005  -2.452908e-007            
8.5571476e-005  -2.450486e-007            
8.5771409e-005  -2.4482921e-007            
8.5971343e-005  -2.4474453e-007            
8.6171276e-005  -2.446391e-007            
8.637121e-005  -2.4469417e-007            
8.6571143e-005  -2.4448096e-007            
8.6771076e-005  -2.4442724e-007            
8.697101e-005  -2.4426586e-007            
8.7170943e-005  -2.4436112e-007            
8.7370876e-005  -2.4434068e-007            
8.757081e-005  -2.4418297e-007            
8.7770743e-005  -2.439973e-007            
8.7970676e-005  -2.4406392e-007            
8.817061e-005  -2.4411206e-007            
8.8370543e-005  -2.4407692e-007            
8.8570476e-005  -2.4394625e-007            
8.877041e-005  -2.4365286e-007            
8.8970343e-005  -2.4353264e-007            
8.9170277e-005  -2.4357277e-007            
8.937021e-005  -2.4336909e-007            
8.9570143e-005  -2.4316861e-007            
8.9770077e-005  -2.4286802e-007            
8.997001e-005  -2.4261892e-007            
9.0169943e-005  -2.4232484e-007            
9.0369877e-005  -2.4198753e-007            
9.056981e-005  -2.4171317e-007            
9.0769743e-005  -2.4159972e-007            
