Surface Profile             
x       y           
[m]     [m]         
0  -8.6820348e-009            
1.9993336e-007  -1.1850952e-008            
3.9986671e-007  -1.4084104e-008            
5.9980007e-007  -1.6011976e-008            
7.9973342e-007  -1.7740068e-008            
9.9966678e-007  -1.8834189e-008            
1.1996001e-006  -2.0407819e-008            
1.3995335e-006  -2.212301e-008            
1.5994668e-006  -2.3970706e-008            
1.7994002e-006  -2.5884012e-008            
1.9993336e-006  -2.7661888e-008            
2.1992669e-006  -2.9504287e-008            
2.3992003e-006  -3.1481369e-008            
2.5991336e-006  -3.3513358e-008            
2.799067e-006  -3.5676507e-008            
2.9990003e-006  -3.750147e-008            
3.1989337e-006  -3.9191853e-008            
3.398867e-006  -4.0617504e-008            
3.5988004e-006  -4.1982152e-008            
3.7987338e-006  -4.3401338e-008            
3.9986671e-006  -4.4733879e-008            
4.1986005e-006  -4.6012458e-008            
4.3985338e-006  -4.6995546e-008            
4.5984672e-006  -4.7675257e-008            
4.7984005e-006  -4.8556343e-008            
4.9983339e-006  -4.9420311e-008            
5.1982672e-006  -5.0086303e-008            
5.3982006e-006  -5.0661962e-008            
5.598134e-006  -5.0945704e-008            
5.7980673e-006  -5.1133756e-008            
5.9980007e-006  -5.1302909e-008            
6.197934e-006  -5.1334971e-008            
6.3978674e-006  -5.1165734e-008            
6.5978007e-006  -5.1189227e-008            
6.7977341e-006  -5.0824157e-008            
6.9976674e-006  -5.0322443e-008            
7.1976008e-006  -4.9584585e-008            
7.3975342e-006  -4.8957101e-008            
7.5974675e-006  -4.8281951e-008            
7.7974009e-006  -4.71322e-008            
7.9973342e-006  -4.5672849e-008            
8.1972676e-006  -4.4047376e-008            
8.3972009e-006  -4.2689134e-008            
8.5971343e-006  -4.1177337e-008            
8.7970676e-006  -3.9706458e-008            
8.997001e-006  -3.7964932e-008            
9.1969344e-006  -3.6062298e-008            
9.3968677e-006  -3.4041478e-008            
9.5968011e-006  -3.2217099e-008            
9.7967344e-006  -3.0152947e-008            
9.9966678e-006  -2.8282599e-008            
1.0196601e-005  -2.6268142e-008            
1.0396534e-005  -2.4134212e-008            
1.0596468e-005  -2.180132e-008            
1.0796401e-005  -1.9764357e-008            
1.0996335e-005  -1.7760023e-008            
1.1196268e-005  -1.5773955e-008            
1.1396201e-005  -1.3491218e-008            
1.1596135e-005  -1.1085394e-008            
1.1796068e-005  -8.6593777e-009            
1.1996001e-005  -6.26278e-009            
1.2195935e-005  -3.9036927e-009            
1.2395868e-005  -1.6261755e-009            
1.2595801e-005  8.0518277e-010            
1.2795735e-005  3.2231758e-009            
1.2995668e-005  5.6724389e-009            
1.3195601e-005  8.3380996e-009            
1.3395535e-005  1.0646362e-008            
1.3595468e-005  1.3006531e-008            
1.3795402e-005  1.5228775e-008            
1.3995335e-005  1.7504938e-008            
1.4195268e-005  1.9860487e-008            
1.4395202e-005  2.1959395e-008            
1.4595135e-005  2.4021604e-008            
1.4795068e-005  2.6020231e-008            
1.4995002e-005  2.7951258e-008            
1.5194935e-005  3.0119254e-008            
1.5394868e-005  3.2178817e-008            
1.5594802e-005  3.4053002e-008            
1.5794735e-005  3.6191701e-008            
1.5994668e-005  3.8201097e-008            
1.6194602e-005  4.018048e-008            
1.6394535e-005  4.2106989e-008            
1.6594469e-005  4.4123421e-008            
1.6794402e-005  4.6405926e-008            
1.6994335e-005  4.8532969e-008            
1.7194269e-005  5.0688005e-008            
1.7394202e-005  5.2658615e-008            
1.7594135e-005  5.4739623e-008            
1.7794069e-005  5.7112357e-008            
1.7994002e-005  5.9385576e-008            
1.8193935e-005  6.1604898e-008            
1.8393869e-005  6.354827e-008            
1.8593802e-005  6.555006e-008            
1.8793735e-005  6.7588218e-008            
1.8993669e-005  6.9638518e-008            
1.9193602e-005  7.1625073e-008            
1.9393535e-005  7.3676153e-008            
1.9593469e-005  7.5699891e-008            
1.9793402e-005  7.7741224e-008            
1.9993336e-005  7.9976718e-008            
2.0193269e-005  8.2039165e-008            
2.0393202e-005  8.4169638e-008            
2.0593136e-005  8.6224894e-008            
2.0793069e-005  8.8253997e-008            
2.0993002e-005  9.0233424e-008            
2.1192936e-005  9.233802e-008            
2.1392869e-005  9.4471943e-008            
2.1592802e-005  9.67243e-008            
2.1792736e-005  9.8956973e-008            
2.1992669e-005  1.0122674e-007            
2.2192602e-005  1.0345858e-007            
2.2392536e-005  1.0566664e-007            
2.2592469e-005  1.079802e-007            
2.2792403e-005  1.1022551e-007            
2.2992336e-005  1.1256015e-007            
2.3192269e-005  1.1462864e-007            
2.3392203e-005  1.1674295e-007            
2.3592136e-005  1.1913867e-007            
2.3792069e-005  1.2158572e-007            
2.3992003e-005  1.239459e-007            
2.4191936e-005  1.2609089e-007            
2.4391869e-005  1.2801593e-007            
2.4591803e-005  1.3019361e-007            
2.4791736e-005  1.3250041e-007            
2.4991669e-005  1.3495783e-007            
2.5191603e-005  1.373339e-007            
2.5391536e-005  1.3962292e-007            
2.5591469e-005  1.4192948e-007            
2.5791403e-005  1.4435593e-007            
2.5991336e-005  1.4668842e-007            
2.619127e-005  1.492862e-007            
2.6391203e-005  1.519342e-007            
2.6591136e-005  1.5457551e-007            
2.679107e-005  1.5699226e-007            
2.6991003e-005  1.5926825e-007            
2.7190936e-005  1.6206448e-007            
2.739087e-005  1.6493747e-007            
2.7590803e-005  1.6778255e-007            
2.7790736e-005  1.7055993e-007            
2.799067e-005  1.7322189e-007            
2.8190603e-005  1.7578728e-007            
2.8390536e-005  1.7847623e-007            
2.859047e-005  1.8126932e-007            
2.8790403e-005  1.8397495e-007            
2.8990337e-005  1.8654839e-007            
2.919027e-005  1.8894244e-007            
2.9390203e-005  1.9149622e-007            
2.9590137e-005  1.9412047e-007            
2.979007e-005  1.9671229e-007            
2.9990003e-005  1.9935581e-007            
3.0189937e-005  2.0176006e-007            
3.038987e-005  2.0416168e-007            
3.0589803e-005  2.0656918e-007            
3.0789737e-005  2.0912263e-007            
3.098967e-005  2.1172543e-007            
3.1189603e-005  2.1407611e-007            
3.1389537e-005  2.1647012e-007            
3.158947e-005  2.1895252e-007            
3.1789404e-005  2.2140981e-007            
3.1989337e-005  2.2397604e-007            
3.218927e-005  2.2621729e-007            
3.2389204e-005  2.2838805e-007            
3.2589137e-005  2.308469e-007            
3.278907e-005  2.3304764e-007            
3.2989004e-005  2.3558192e-007            
3.3188937e-005  2.3785999e-007            
3.338887e-005  2.4024249e-007            
3.3588804e-005  2.4259363e-007            
3.3788737e-005  2.4458596e-007            
3.398867e-005  2.465677e-007            
3.4188604e-005  2.4847293e-007            
3.4388537e-005  2.505404e-007            
3.458847e-005  2.5260334e-007            
3.4788404e-005  2.5451243e-007            
3.4988337e-005  2.5622973e-007            
3.5188271e-005  2.580725e-007            
3.5388204e-005  2.6000099e-007            
3.5588137e-005  2.6185213e-007            
3.5788071e-005  2.6364959e-007            
3.5988004e-005  2.6527952e-007            
3.6187937e-005  2.6702917e-007            
3.6387871e-005  2.6884956e-007            
3.6587804e-005  2.7065239e-007            
3.6787737e-005  2.7236535e-007            
3.6987671e-005  2.7398943e-007            
3.7187604e-005  2.7581654e-007            
3.7387537e-005  2.7774461e-007            
3.7587471e-005  2.7942047e-007            
3.7787404e-005  2.8109214e-007            
3.7987338e-005  2.8291704e-007            
3.8187271e-005  2.8481186e-007            
3.8387204e-005  2.8641382e-007            
3.8587138e-005  2.8772164e-007            
3.8787071e-005  2.8924304e-007            
3.8987004e-005  2.9050563e-007            
3.9186938e-005  2.919075e-007            
3.9386871e-005  2.9306591e-007            
3.9586804e-005  2.9420616e-007            
3.9786738e-005  2.9564608e-007            
3.9986671e-005  2.968645e-007            
4.0186604e-005  2.97676e-007            
4.0386538e-005  2.9855246e-007            
4.0586471e-005  2.9945055e-007            
4.0786405e-005  3.0070508e-007            
4.0986338e-005  3.0163591e-007            
4.1186271e-005  3.0242375e-007            
4.1386205e-005  3.0316785e-007            
4.1586138e-005  3.0397436e-007            
4.1786071e-005  3.0486695e-007            
4.1986005e-005  3.056783e-007            
4.2185938e-005  3.0629496e-007            
4.2385871e-005  3.0697558e-007            
4.2585805e-005  3.0764479e-007            
4.2785738e-005  3.0818111e-007            
4.2985671e-005  3.0876775e-007            
4.3185605e-005  3.0937942e-007            
4.3385538e-005  3.1007543e-007            
4.3585471e-005  3.108192e-007            
4.3785405e-005  3.1109982e-007            
4.3985338e-005  3.1135245e-007            
4.4185272e-005  3.1190962e-007            
4.4385205e-005  3.125621e-007            
4.4585138e-005  3.1315994e-007            
4.4785072e-005  3.1344644e-007            
4.4985005e-005  3.1356889e-007            
4.5184938e-005  3.1408289e-007            
4.5384872e-005  3.1460372e-007            
4.5584805e-005  3.1523667e-007            
4.5784738e-005  3.1560624e-007            
4.5984672e-005  3.1595196e-007            
4.6184605e-005  3.1632807e-007            
4.6384538e-005  3.1663714e-007            
4.6584472e-005  3.1713471e-007            
4.6784405e-005  3.1756872e-007            
4.6984339e-005  3.1791745e-007            
4.7184272e-005  3.18377e-007            
4.7384205e-005  3.186092e-007            
4.7584139e-005  3.186871e-007            
4.7784072e-005  3.1906513e-007            
4.7984005e-005  3.1954322e-007            
4.8183939e-005  3.1995139e-007            
4.8383872e-005  3.1994193e-007            
4.8583805e-005  3.2006105e-007            
4.8783739e-005  3.2028089e-007            
4.8983672e-005  3.2085706e-007            
4.9183605e-005  3.2130226e-007            
4.9383539e-005  3.2139247e-007            
4.9583472e-005  3.2147713e-007            
4.9783406e-005  3.2179914e-007            
4.9983339e-005  3.2214262e-007            
5.0183272e-005  3.2258031e-007            
5.0383206e-005  3.2291784e-007            
5.0583139e-005  3.2334206e-007            
5.0783072e-005  3.2366014e-007            
5.0983006e-005  3.2400058e-007            
5.1182939e-005  3.2422427e-007            
5.1382872e-005  3.2483202e-007            
5.1582806e-005  3.2532285e-007            
5.1782739e-005  3.2568159e-007            
5.1982672e-005  3.259352e-007            
5.2182606e-005  3.2614239e-007            
5.2382539e-005  3.2677587e-007            
5.2582472e-005  3.2739138e-007            
5.2782406e-005  3.2780017e-007            
5.2982339e-005  3.2825373e-007            
5.3182273e-005  3.2860036e-007            
5.3382206e-005  3.2912351e-007            
5.3582139e-005  3.2954183e-007            
5.3782073e-005  3.2993747e-007            
5.3982006e-005  3.3047911e-007            
5.4181939e-005  3.30897e-007            
5.4381873e-005  3.312481e-007            
5.4581806e-005  3.3146669e-007            
5.4781739e-005  3.3170689e-007            
5.4981673e-005  3.3207067e-007            
5.5181606e-005  3.3253558e-007            
5.5381539e-005  3.3274474e-007            
5.5581473e-005  3.3296697e-007            
5.5781406e-005  3.332735e-007            
5.598134e-005  3.3372246e-007            
5.6181273e-005  3.3414095e-007            
5.6381206e-005  3.3442928e-007            
5.658114e-005  3.34656e-007            
5.6781073e-005  3.349315e-007            
5.6981006e-005  3.353197e-007            
5.718094e-005  3.3576739e-007            
5.7380873e-005  3.3619093e-007            
5.7580806e-005  3.3667403e-007            
5.778074e-005  3.3710777e-007            
5.7980673e-005  3.3747222e-007            
5.8180606e-005  3.3775303e-007            
5.838054e-005  3.3791146e-007            
5.8580473e-005  3.3846396e-007            
5.8780407e-005  3.3899496e-007            
5.898034e-005  3.3932664e-007            
5.9180273e-005  3.3960994e-007            
5.9380207e-005  3.3983691e-007            
5.958014e-005  3.4020625e-007            
5.9780073e-005  3.4068427e-007            
5.9980007e-005  3.4099213e-007            
6.017994e-005  3.4132293e-007            
6.0379873e-005  3.4158611e-007            
6.0579807e-005  3.4188321e-007            
6.077974e-005  3.4213587e-007            
6.0979673e-005  3.4255704e-007            
6.1179607e-005  3.4279992e-007            
6.137954e-005  3.431474e-007            
6.1579473e-005  3.4334379e-007            
6.1779407e-005  3.4356525e-007            
6.197934e-005  3.4371319e-007            
6.2179274e-005  3.4385003e-007            
6.2379207e-005  3.4419443e-007            
6.257914e-005  3.4440336e-007            
6.2779074e-005  3.4455769e-007            
6.2979007e-005  3.4472742e-007            
6.317894e-005  3.4482361e-007            
6.3378874e-005  3.4498045e-007            
6.3578807e-005  3.4513246e-007            
6.377874e-005  3.4540241e-007            
6.3978674e-005  3.4551514e-007            
6.4178607e-005  3.4569722e-007            
6.437854e-005  3.4576813e-007            
6.4578474e-005  3.4589948e-007            
6.4778407e-005  3.4606598e-007            
6.4978341e-005  3.4629889e-007            
6.5178274e-005  3.4641323e-007            
6.5378207e-005  3.4652614e-007            
6.5578141e-005  3.4651833e-007            
6.5778074e-005  3.4673831e-007            
6.5978007e-005  3.4704117e-007            
6.6177941e-005  3.4714383e-007            
6.6377874e-005  3.4726891e-007            
6.6577807e-005  3.472672e-007            
6.6777741e-005  3.4729444e-007            
6.6977674e-005  3.4749281e-007            
6.7177607e-005  3.4781586e-007            
6.7377541e-005  3.4794889e-007            
6.7577474e-005  3.4796711e-007            
6.7777407e-005  3.4807256e-007            
6.7977341e-005  3.4804878e-007            
6.8177274e-005  3.481945e-007            
6.8377208e-005  3.4825678e-007            
6.8577141e-005  3.4842965e-007            
6.8777074e-005  3.4866748e-007            
6.8977008e-005  3.4870304e-007            
6.9176941e-005  3.488458e-007            
6.9376874e-005  3.4892907e-007            
6.9576808e-005  3.4918576e-007            
6.9776741e-005  3.4947568e-007            
6.9976674e-005  3.4952687e-007            
7.0176608e-005  3.4958842e-007            
7.0376541e-005  3.4964156e-007            
7.0576474e-005  3.4981793e-007            
7.0776408e-005  3.5023497e-007            
7.0976341e-005  3.5059992e-007            
7.1176275e-005  3.5069437e-007            
7.1376208e-005  3.5067196e-007            
7.1576141e-005  3.5060417e-007            
7.1776075e-005  3.5090676e-007            
7.1976008e-005  3.5096874e-007            
7.2175941e-005  3.5106269e-007            
7.2375875e-005  3.5096948e-007            
7.2575808e-005  3.5096747e-007            
7.2775741e-005  3.5115145e-007            
7.2975675e-005  3.5125985e-007            
7.3175608e-005  3.5144416e-007            
7.3375541e-005  3.5150414e-007            
7.3575475e-005  3.5147119e-007            
7.3775408e-005  3.5137806e-007            
7.3975342e-005  3.5135702e-007            
7.4175275e-005  3.5143094e-007            
7.4375208e-005  3.5161436e-007            
7.4575142e-005  3.5181988e-007            
7.4775075e-005  3.5179733e-007            
7.4975008e-005  3.5173206e-007            
7.5174942e-005  3.5157833e-007            
7.5374875e-005  3.5171818e-007            
7.5574808e-005  3.5169053e-007            
7.5774742e-005  3.5138048e-007            
7.5974675e-005  3.5112269e-007            
7.6174608e-005  3.5082103e-007            
7.6374542e-005  3.5059788e-007            
7.6574475e-005  3.5033179e-007            
7.6774408e-005  3.4991519e-007            
7.6974342e-005  3.4946693e-007            
7.7174275e-005  3.4911435e-007            
7.7374209e-005  3.4860687e-007            
7.7574142e-005  3.4820358e-007            
7.7774075e-005  3.4775174e-007            
7.7974009e-005  3.4737327e-007            
7.8173942e-005  3.4685497e-007            
7.8373875e-005  3.4597851e-007            
7.8573809e-005  3.4532921e-007            
7.8773742e-005  3.447281e-007            
7.8973675e-005  3.4412965e-007            
7.9173609e-005  3.4344165e-007            
7.9373542e-005  3.42449e-007            
7.9573475e-005  3.4165669e-007            
7.9773409e-005  3.4077498e-007            
7.9973342e-005  3.3995976e-007            
8.0173276e-005  3.3909857e-007            
8.0373209e-005  3.3812635e-007            
8.0573142e-005  3.3727688e-007            
8.0773076e-005  3.3672904e-007            
8.0973009e-005  3.3587814e-007            
8.1172942e-005  3.3503805e-007            
8.1372876e-005  3.3423807e-007            
8.1572809e-005  3.3363891e-007            
8.1772742e-005  3.3303137e-007            
8.1972676e-005  3.3230598e-007            
8.2172609e-005  3.3153936e-007            
8.2372542e-005  3.3079681e-007            
8.2572476e-005  3.3028848e-007            
8.2772409e-005  3.2975312e-007            
8.2972343e-005  3.2905722e-007            
8.3172276e-005  3.2833644e-007            
8.3372209e-005  3.2778005e-007            
8.3572143e-005  3.2710136e-007            
8.3772076e-005  3.2652351e-007            
8.3972009e-005  3.2593162e-007            
8.4171943e-005  3.2533632e-007            
8.4371876e-005  3.2502403e-007            
8.4571809e-005  3.2435436e-007            
8.4771743e-005  3.237398e-007            
8.4971676e-005  3.2312824e-007            
8.5171609e-005  3.2271743e-007            
8.5371543e-005  3.2235702e-007            
8.5571476e-005  3.2179215e-007            
8.5771409e-005  3.211547e-007            
8.5971343e-005  3.2051134e-007            
8.6171276e-005  3.2006671e-007            
8.637121e-005  3.1965785e-007            
8.6571143e-005  3.1916865e-007            
8.6771076e-005  3.1862297e-007            
8.697101e-005  3.1829413e-007            
8.7170943e-005  3.1768402e-007            
8.7370876e-005  3.1709528e-007            
8.757081e-005  3.1669598e-007            
8.7770743e-005  3.162855e-007            
8.7970676e-005  3.1574455e-007            
8.817061e-005  3.1517314e-007            
8.8370543e-005  3.1441942e-007            
8.8570476e-005  3.1397727e-007            
8.877041e-005  3.1368835e-007            
8.8970343e-005  3.13442e-007            
8.9170277e-005  3.1305549e-007            
8.937021e-005  3.1267102e-007            
8.9570143e-005  3.1220815e-007            
8.9770077e-005  3.1183249e-007            
8.997001e-005  3.1148049e-007            
9.0169943e-005  3.1131618e-007            
9.0369877e-005  3.1106334e-007            
9.056981e-005  3.1077098e-007            
9.0769743e-005  3.1034386e-007            
9.0969677e-005  3.0980335e-007            
9.116961e-005  3.0969864e-007            
9.1369543e-005  3.0956435e-007            
9.1569477e-005  3.0934307e-007            
9.176941e-005  3.0896094e-007            
9.1969344e-005  3.0849552e-007            
9.2169277e-005  3.0810795e-007            
9.236921e-005  3.0800445e-007            
9.2569144e-005  3.0770094e-007            
