Surface Profile             
x       y           
[m]     [m]         
0  3.3482437e-010            
1.9993336e-007  1.0053955e-010            
3.9986671e-007  -5.0133318e-010            
5.9980007e-007  -7.8994277e-010            
7.9973342e-007  -1.1155962e-009            
9.9966678e-007  -1.6643179e-009            
1.1996001e-006  -2.0063997e-009            
1.3995335e-006  -2.3004081e-009            
1.5994668e-006  -2.5171776e-009            
1.7994002e-006  -2.9241643e-009            
1.9993336e-006  -3.6590233e-009            
2.1992669e-006  -4.3382844e-009            
2.3992003e-006  -4.9132909e-009            
2.5991336e-006  -5.3634785e-009            
2.799067e-006  -5.872327e-009            
2.9990003e-006  -6.5343253e-009            
3.1989337e-006  -7.1796345e-009            
3.398867e-006  -7.6505008e-009            
3.5988004e-006  -8.2516967e-009            
3.7987338e-006  -9.0259637e-009            
3.9986671e-006  -9.6819818e-009            
4.1986005e-006  -1.007053e-008            
4.3985338e-006  -1.0833991e-008            
4.5984672e-006  -1.1660987e-008            
4.7984005e-006  -1.2712404e-008            
4.9983339e-006  -1.3230192e-008            
5.1982672e-006  -1.3446213e-008            
5.3982006e-006  -1.4018983e-008            
5.598134e-006  -1.5064502e-008            
5.7980673e-006  -1.597853e-008            
5.9980007e-006  -1.6645531e-008            
6.197934e-006  -1.7115026e-008            
6.3978674e-006  -1.7720094e-008            
6.5978007e-006  -1.8774871e-008            
6.7977341e-006  -1.9511318e-008            
6.9976674e-006  -2.0169588e-008            
7.1976008e-006  -2.1010272e-008            
7.3975342e-006  -2.1696716e-008            
7.5974675e-006  -2.2593223e-008            
7.7974009e-006  -2.2964304e-008            
7.9973342e-006  -2.3498295e-008            
8.1972676e-006  -2.4387161e-008            
8.3972009e-006  -2.5289855e-008            
8.5971343e-006  -2.5628554e-008            
8.7970676e-006  -2.6080752e-008            
8.997001e-006  -2.6525453e-008            
9.1969344e-006  -2.7512783e-008            
9.3968677e-006  -2.8172878e-008            
9.5968011e-006  -2.8700708e-008            
9.7967344e-006  -2.9133106e-008            
9.9966678e-006  -2.9508668e-008            
1.0196601e-005  -3.0219918e-008            
1.0396534e-005  -3.0796127e-008            
1.0596468e-005  -3.1436747e-008            
1.0796401e-005  -3.2177315e-008            
1.0996335e-005  -3.2836075e-008            
1.1196268e-005  -3.3348743e-008            
1.1396201e-005  -3.3851023e-008            
1.1596135e-005  -3.4751594e-008            
1.1796068e-005  -3.5723369e-008            
1.1996001e-005  -3.6494938e-008            
1.2195935e-005  -3.6978562e-008            
1.2395868e-005  -3.7451562e-008            
1.2595801e-005  -3.8252362e-008            
1.2795735e-005  -3.9329869e-008            
1.2995668e-005  -4.0200784e-008            
1.3195601e-005  -4.0924623e-008            
1.3395535e-005  -4.1689538e-008            
1.3595468e-005  -4.2451432e-008            
1.3795402e-005  -4.3267148e-008            
1.3995335e-005  -4.4113116e-008            
1.4195268e-005  -4.4952316e-008            
1.4395202e-005  -4.6041453e-008            
1.4595135e-005  -4.691498e-008            
1.4795068e-005  -4.7633065e-008            
1.4995002e-005  -4.8506141e-008            
1.5194935e-005  -4.9558316e-008            
1.5394868e-005  -5.0719972e-008            
1.5594802e-005  -5.1716036e-008            
1.5794735e-005  -5.2399107e-008            
1.5994668e-005  -5.3317487e-008            
1.6194602e-005  -5.4417113e-008            
1.6394535e-005  -5.5441656e-008            
1.6594469e-005  -5.6446918e-008            
1.6794402e-005  -5.7330241e-008            
1.6994335e-005  -5.8164061e-008            
1.7194269e-005  -5.9100951e-008            
1.7394202e-005  -5.9828599e-008            
1.7594135e-005  -6.0782808e-008            
1.7794069e-005  -6.1629342e-008            
1.7994002e-005  -6.2560183e-008            
1.8193935e-005  -6.3276652e-008            
1.8393869e-005  -6.4086575e-008            
1.8593802e-005  -6.5005088e-008            
1.8793735e-005  -6.625294e-008            
1.8993669e-005  -6.7177473e-008            
1.9193602e-005  -6.7994547e-008            
1.9393535e-005  -6.8711568e-008            
1.9593469e-005  -6.9751849e-008            
1.9793402e-005  -7.0931586e-008            
1.9993336e-005  -7.2144867e-008            
2.0193269e-005  -7.3174918e-008            
2.0393202e-005  -7.412165e-008            
2.0593136e-005  -7.5141228e-008            
2.0793069e-005  -7.618301e-008            
2.0993002e-005  -7.7252693e-008            
2.1192936e-005  -7.8506408e-008            
2.1392869e-005  -7.9791948e-008            
2.1592802e-005  -8.0884862e-008            
2.1792736e-005  -8.1785295e-008            
2.1992669e-005  -8.2802392e-008            
2.2192602e-005  -8.4152878e-008            
2.2392536e-005  -8.5602551e-008            
2.2592469e-005  -8.6546514e-008            
2.2792403e-005  -8.7495803e-008            
2.2992336e-005  -8.8568222e-008            
2.3192269e-005  -8.9503707e-008            
2.3392203e-005  -9.0644755e-008            
2.3592136e-005  -9.1557685e-008            
2.3792069e-005  -9.2529154e-008            
2.3992003e-005  -9.3464208e-008            
2.4191936e-005  -9.4447908e-008            
2.4391869e-005  -9.5343947e-008            
2.4591803e-005  -9.6287813e-008            
2.4791736e-005  -9.7276961e-008            
2.4991669e-005  -9.8405564e-008            
2.5191603e-005  -9.9314894e-008            
2.5391536e-005  -1.003499e-007            
2.5591469e-005  -1.0122773e-007            
2.5791403e-005  -1.0228817e-007            
2.5991336e-005  -1.0313616e-007            
2.619127e-005  -1.0414766e-007            
2.6391203e-005  -1.0503862e-007            
2.6591136e-005  -1.0607363e-007            
2.679107e-005  -1.067816e-007            
2.6991003e-005  -1.0760993e-007            
2.7190936e-005  -1.0829364e-007            
2.739087e-005  -1.092201e-007            
2.7590803e-005  -1.1021293e-007            
2.7790736e-005  -1.1099666e-007            
2.799067e-005  -1.1147522e-007            
2.8190603e-005  -1.1214618e-007            
2.8390536e-005  -1.1299253e-007            
2.859047e-005  -1.1394782e-007            
2.8790403e-005  -1.145643e-007            
2.8990337e-005  -1.1495939e-007            
2.919027e-005  -1.1548007e-007            
2.9390203e-005  -1.1594951e-007            
2.9590137e-005  -1.1643736e-007            
2.979007e-005  -1.1695411e-007            
2.9990003e-005  -1.1768993e-007            
3.0189937e-005  -1.1833141e-007            
3.038987e-005  -1.1866217e-007            
3.0589803e-005  -1.190527e-007            
3.0789737e-005  -1.1962646e-007            
3.098967e-005  -1.2034603e-007            
3.1189603e-005  -1.2105835e-007            
3.1389537e-005  -1.2129808e-007            
3.158947e-005  -1.2142132e-007            
3.1789404e-005  -1.218692e-007            
3.1989337e-005  -1.224871e-007            
3.218927e-005  -1.2324819e-007            
3.2389204e-005  -1.237161e-007            
3.2589137e-005  -1.2409946e-007            
3.278907e-005  -1.2453722e-007            
3.2989004e-005  -1.250929e-007            
3.3188937e-005  -1.2563154e-007            
3.338887e-005  -1.2636546e-007            
3.3588804e-005  -1.2696745e-007            
3.3788737e-005  -1.2759814e-007            
3.398867e-005  -1.2790999e-007            
3.4188604e-005  -1.2843178e-007            
3.4388537e-005  -1.291318e-007            
3.458847e-005  -1.2992198e-007            
3.4788404e-005  -1.3055064e-007            
3.4988337e-005  -1.311517e-007            
3.5188271e-005  -1.3149795e-007            
3.5388204e-005  -1.3210044e-007            
3.5588137e-005  -1.3297601e-007            
3.5788071e-005  -1.3389663e-007            
3.5988004e-005  -1.3482894e-007            
3.6187937e-005  -1.3549426e-007            
3.6387871e-005  -1.3604513e-007            
3.6587804e-005  -1.3672482e-007            
3.6787737e-005  -1.3766926e-007            
3.6987671e-005  -1.3871554e-007            
3.7187604e-005  -1.3957842e-007            
3.7387537e-005  -1.4025249e-007            
3.7587471e-005  -1.4076829e-007            
3.7787404e-005  -1.4142607e-007            
3.7987338e-005  -1.4214914e-007            
3.8187271e-005  -1.429721e-007            
3.8387204e-005  -1.4367975e-007            
3.8587138e-005  -1.4439727e-007            
3.8787071e-005  -1.4490221e-007            
3.8987004e-005  -1.4555298e-007            
3.9186938e-005  -1.4630321e-007            
3.9386871e-005  -1.4714597e-007            
3.9586804e-005  -1.4793474e-007            
3.9786738e-005  -1.484774e-007            
3.9986671e-005  -1.4904531e-007            
4.0186604e-005  -1.4982303e-007            
4.0386538e-005  -1.5065378e-007            
4.0586471e-005  -1.5147691e-007            
4.0786405e-005  -1.5217839e-007            
4.0986338e-005  -1.5269941e-007            
4.1186271e-005  -1.5322721e-007            
4.1386205e-005  -1.5385962e-007            
4.1586138e-005  -1.5477215e-007            
4.1786071e-005  -1.5552736e-007            
4.1986005e-005  -1.5626758e-007            
4.2185938e-005  -1.5704315e-007            
4.2385871e-005  -1.5749921e-007            
4.2585805e-005  -1.5799454e-007            
4.2785738e-005  -1.5864529e-007            
4.2985671e-005  -1.5930967e-007            
4.3185605e-005  -1.6015114e-007            
4.3385538e-005  -1.6058934e-007            
4.3585471e-005  -1.6112443e-007            
4.3785405e-005  -1.6163108e-007            
4.3985338e-005  -1.6263726e-007            
4.4185272e-005  -1.6334573e-007            
4.4385205e-005  -1.6400742e-007            
4.4585138e-005  -1.6443798e-007            
4.4785072e-005  -1.6507998e-007            
4.4985005e-005  -1.6588125e-007            
4.5184938e-005  -1.6666156e-007            
4.5384872e-005  -1.6746392e-007            
4.5584805e-005  -1.680791e-007            
4.5784738e-005  -1.6876741e-007            
4.5984672e-005  -1.6951786e-007            
4.6184605e-005  -1.7024393e-007            
4.6384538e-005  -1.7097747e-007            
4.6584472e-005  -1.7177212e-007            
4.6784405e-005  -1.726807e-007            
4.6984339e-005  -1.735489e-007            
4.7184272e-005  -1.7413572e-007            
4.7384205e-005  -1.7476572e-007            
4.7584139e-005  -1.7587342e-007            
4.7784072e-005  -1.7675708e-007            
4.7984005e-005  -1.776308e-007            
4.8183939e-005  -1.7832768e-007            
4.8383872e-005  -1.7914111e-007            
4.8583805e-005  -1.8017206e-007            
4.8783739e-005  -1.8096277e-007            
4.8983672e-005  -1.8173457e-007            
4.9183605e-005  -1.8263379e-007            
4.9383539e-005  -1.8359416e-007            
4.9583472e-005  -1.8441965e-007            
4.9783406e-005  -1.8508518e-007            
4.9983339e-005  -1.8595208e-007            
5.0183272e-005  -1.869318e-007            
5.0383206e-005  -1.8795108e-007            
5.0583139e-005  -1.8884841e-007            
5.0783072e-005  -1.8954476e-007            
5.0983006e-005  -1.9035042e-007            
5.1182939e-005  -1.9128538e-007            
5.1382872e-005  -1.9225019e-007            
5.1582806e-005  -1.9331958e-007            
5.1782739e-005  -1.9433125e-007            
5.1982672e-005  -1.9529949e-007            
5.2182606e-005  -1.9637503e-007            
5.2382539e-005  -1.9738505e-007            
5.2582472e-005  -1.9836304e-007            
5.2782406e-005  -1.99397e-007            
5.2982339e-005  -2.0056579e-007            
5.3182273e-005  -2.0160842e-007            
5.3382206e-005  -2.0239994e-007            
5.3582139e-005  -2.0323426e-007            
5.3782073e-005  -2.0431055e-007            
5.3982006e-005  -2.0548802e-007            
5.4181939e-005  -2.0634533e-007            
5.4381873e-005  -2.0734318e-007            
5.4581806e-005  -2.0820072e-007            
5.4781739e-005  -2.094227e-007            
5.4981673e-005  -2.1053442e-007            
5.5181606e-005  -2.1153745e-007            
5.5381539e-005  -2.1267748e-007            
5.5581473e-005  -2.1376061e-007            
5.5781406e-005  -2.1488001e-007            
5.598134e-005  -2.1610141e-007            
5.6181273e-005  -2.1729284e-007            
5.6381206e-005  -2.1864045e-007            
5.658114e-005  -2.1987411e-007            
5.6781073e-005  -2.2095005e-007            
5.6981006e-005  -2.2200818e-007            
5.718094e-005  -2.2312824e-007            
5.7380873e-005  -2.244199e-007            
5.7580806e-005  -2.2587411e-007            
5.778074e-005  -2.2700143e-007            
5.7980673e-005  -2.2803815e-007            
5.8180606e-005  -2.289699e-007            
5.838054e-005  -2.3027751e-007            
5.8580473e-005  -2.3162133e-007            
5.8780407e-005  -2.3291118e-007            
5.898034e-005  -2.3392415e-007            
5.9180273e-005  -2.3497364e-007            
5.9380207e-005  -2.3632052e-007            
5.958014e-005  -2.3754857e-007            
5.9780073e-005  -2.3881088e-007            
5.9980007e-005  -2.4013442e-007            
6.017994e-005  -2.4139007e-007            
6.0379873e-005  -2.425367e-007            
6.0579807e-005  -2.4366065e-007            
6.077974e-005  -2.4476378e-007            
6.0979673e-005  -2.4609326e-007            
6.1179607e-005  -2.4741854e-007            
6.137954e-005  -2.4841499e-007            
6.1579473e-005  -2.4945518e-007            
6.1779407e-005  -2.5045605e-007            
6.197934e-005  -2.5182847e-007            
6.2179274e-005  -2.5323727e-007            
6.2379207e-005  -2.5449279e-007            
6.257914e-005  -2.5561739e-007            
6.2779074e-005  -2.5670693e-007            
6.2979007e-005  -2.5782706e-007            
6.317894e-005  -2.590262e-007            
6.3378874e-005  -2.6022856e-007            
6.3578807e-005  -2.6147573e-007            
6.377874e-005  -2.6269774e-007            
6.3978674e-005  -2.6378182e-007            
6.4178607e-005  -2.6495324e-007            
6.437854e-005  -2.6619983e-007            
6.4578474e-005  -2.6756174e-007            
6.4778407e-005  -2.6891947e-007            
6.4978341e-005  -2.7005516e-007            
6.5178274e-005  -2.709886e-007            
6.5378207e-005  -2.7217391e-007            
6.5578141e-005  -2.7344534e-007            
6.5778074e-005  -2.7470964e-007            
6.5978007e-005  -2.7594808e-007            
6.6177941e-005  -2.7698987e-007            
6.6377874e-005  -2.7811538e-007            
6.6577807e-005  -2.7932285e-007            
6.6777741e-005  -2.8033961e-007            
6.6977674e-005  -2.8157999e-007            
6.7177607e-005  -2.8272568e-007            
6.7377541e-005  -2.8392123e-007            
6.7577474e-005  -2.8498042e-007            
6.7777407e-005  -2.8598804e-007            
6.7977341e-005  -2.8720961e-007            
6.8177274e-005  -2.8826005e-007            
6.8377208e-005  -2.8944313e-007            
6.8577141e-005  -2.9038283e-007            
6.8777074e-005  -2.912679e-007            
6.8977008e-005  -2.9232552e-007            
6.9176941e-005  -2.9340859e-007            
6.9376874e-005  -2.945091e-007            
6.9576808e-005  -2.9564488e-007            
6.9776741e-005  -2.966868e-007            
6.9976674e-005  -2.9775563e-007            
7.0176608e-005  -2.9886472e-007            
7.0376541e-005  -2.9979136e-007            
7.0576474e-005  -3.0072994e-007            
7.0776408e-005  -3.0158355e-007            
7.0976341e-005  -3.0251039e-007            
7.1176275e-005  -3.0345987e-007            
7.1376208e-005  -3.0444622e-007            
7.1576141e-005  -3.0545989e-007            
7.1776075e-005  -3.0638585e-007            
7.1976008e-005  -3.0735177e-007            
7.2175941e-005  -3.0822686e-007            
7.2375875e-005  -3.091434e-007            
7.2575808e-005  -3.1009738e-007            
7.2775741e-005  -3.1110208e-007            
7.2975675e-005  -3.1200496e-007            
7.3175608e-005  -3.1294555e-007            
7.3375541e-005  -3.1394777e-007            
7.3575475e-005  -3.1497212e-007            
7.3775408e-005  -3.1591524e-007            
7.3975342e-005  -3.1675597e-007            
7.4175275e-005  -3.1775487e-007            
7.4375208e-005  -3.1880134e-007            
7.4575142e-005  -3.1992495e-007            
7.4775075e-005  -3.209054e-007            
7.4975008e-005  -3.2189246e-007            
7.5174942e-005  -3.228599e-007            
7.5374875e-005  -3.2396218e-007            
7.5574808e-005  -3.2485436e-007            
7.5774742e-005  -3.2561064e-007            
7.5974675e-005  -3.2648216e-007            
7.6174608e-005  -3.2727876e-007            
7.6374542e-005  -3.280644e-007            
7.6574475e-005  -3.2880214e-007            
7.6774408e-005  -3.2953283e-007            
7.6974342e-005  -3.3021494e-007            
7.7174275e-005  -3.3075373e-007            
7.7374209e-005  -3.3127035e-007            
7.7574142e-005  -3.3153823e-007            
7.7774075e-005  -3.3198377e-007            
7.7974009e-005  -3.3247781e-007            
7.8173942e-005  -3.328275e-007            
7.8373875e-005  -3.3305109e-007            
7.8573809e-005  -3.3326765e-007            
7.8773742e-005  -3.3369317e-007            
7.8973675e-005  -3.341416e-007            
7.9173609e-005  -3.3449012e-007            
7.9373542e-005  -3.3472441e-007            
7.9573475e-005  -3.3501951e-007            
7.9773409e-005  -3.3516057e-007            
7.9973342e-005  -3.353367e-007            
8.0173276e-005  -3.353803e-007            
8.0373209e-005  -3.3571164e-007            
8.0573142e-005  -3.3605554e-007            
8.0773076e-005  -3.3598562e-007            
8.0973009e-005  -3.3595222e-007            
8.1172942e-005  -3.3621721e-007            
8.1372876e-005  -3.3646447e-007            
8.1572809e-005  -3.3678212e-007            
8.1772742e-005  -3.3685081e-007            
8.1972676e-005  -3.3669435e-007            
8.2172609e-005  -3.3675164e-007            
8.2372542e-005  -3.3683324e-007            
8.2572476e-005  -3.36917e-007            
8.2772409e-005  -3.3696809e-007            
8.2972343e-005  -3.3691109e-007            
8.3172276e-005  -3.3686723e-007            
8.3372209e-005  -3.3683235e-007            
8.3572143e-005  -3.3668787e-007            
8.3772076e-005  -3.3671951e-007            
8.3972009e-005  -3.3695196e-007            
8.4171943e-005  -3.3691793e-007            
8.4371876e-005  -3.3665893e-007            
8.4571809e-005  -3.3636966e-007            
8.4771743e-005  -3.3626989e-007            
8.4971676e-005  -3.3649662e-007            
8.5171609e-005  -3.3650856e-007            
8.5371543e-005  -3.3620107e-007            
8.5571476e-005  -3.3598404e-007            
8.5771409e-005  -3.3601241e-007            
8.5971343e-005  -3.3592377e-007            
8.6171276e-005  -3.357572e-007            
8.637121e-005  -3.3553034e-007            
8.6571143e-005  -3.3531785e-007            
8.6771076e-005  -3.3525899e-007            
8.697101e-005  -3.350519e-007            
8.7170943e-005  -3.3479975e-007            
8.7370876e-005  -3.347647e-007            
8.757081e-005  -3.3457584e-007            
8.7770743e-005  -3.3448735e-007            
8.7970676e-005  -3.3396848e-007            
8.817061e-005  -3.3351173e-007            
8.8370543e-005  -3.3311765e-007            
8.8570476e-005  -3.3295331e-007            
8.877041e-005  -3.3246672e-007            
8.8970343e-005  -3.3194733e-007            
8.9170277e-005  -3.3121757e-007            
8.937021e-005  -3.3081383e-007            
8.9570143e-005  -3.304674e-007            
8.9770077e-005  -3.2997644e-007            
8.997001e-005  -3.2939954e-007            
9.0169943e-005  -3.2874402e-007            
9.0369877e-005  -3.280938e-007            
9.056981e-005  -3.2766864e-007            
9.0769743e-005  -3.2703323e-007            
