Surface Profile             
x       y           
[m]     [m]         
0  3.6933562e-009            
1.9993336e-007  5.5322014e-009            
3.9986671e-007  7.2369595e-009            
5.9980007e-007  8.432784e-009            
7.9973342e-007  9.4648004e-009            
9.9966678e-007  1.0512871e-008            
1.1996001e-006  1.1347823e-008            
1.3995335e-006  1.2462849e-008            
1.5994668e-006  1.340668e-008            
1.7994002e-006  1.4637205e-008            
1.9993336e-006  1.5764226e-008            
2.1992669e-006  1.7001211e-008            
2.3992003e-006  1.8212938e-008            
2.5991336e-006  1.9368149e-008            
2.799067e-006  2.0587407e-008            
2.9990003e-006  2.1706887e-008            
3.1989337e-006  2.3011557e-008            
3.398867e-006  2.4469138e-008            
3.5988004e-006  2.5781061e-008            
3.7987338e-006  2.7403075e-008            
3.9986671e-006  2.8934231e-008            
4.1986005e-006  3.0320531e-008            
4.3985338e-006  3.1932833e-008            
4.5984672e-006  3.341751e-008            
4.7984005e-006  3.5016295e-008            
4.9983339e-006  3.6519485e-008            
5.1982672e-006  3.7963493e-008            
5.3982006e-006  3.9655689e-008            
5.598134e-006  4.1021577e-008            
5.7980673e-006  4.2257429e-008            
5.9980007e-006  4.3552114e-008            
6.197934e-006  4.496841e-008            
6.3978674e-006  4.6529954e-008            
6.5978007e-006  4.7983255e-008            
6.7977341e-006  4.9115026e-008            
6.9976674e-006  5.0382715e-008            
7.1976008e-006  5.1695427e-008            
7.3975342e-006  5.2780794e-008            
7.5974675e-006  5.4005911e-008            
7.7974009e-006  5.5282375e-008            
7.9973342e-006  5.6498765e-008            
8.1972676e-006  5.7852555e-008            
8.3972009e-006  5.9012658e-008            
8.5971343e-006  6.016838e-008            
8.7970676e-006  6.1319531e-008            
8.997001e-006  6.2407517e-008            
9.1969344e-006  6.3427812e-008            
9.3968677e-006  6.4524292e-008            
9.5968011e-006  6.5813774e-008            
9.7967344e-006  6.7018062e-008            
9.9966678e-006  6.8220456e-008            
1.0196601e-005  6.9425818e-008            
1.0396534e-005  7.0667288e-008            
1.0596468e-005  7.1864179e-008            
1.0796401e-005  7.2831344e-008            
1.0996335e-005  7.3947517e-008            
1.1196268e-005  7.5127372e-008            
1.1396201e-005  7.6122459e-008            
1.1596135e-005  7.7047178e-008            
1.1796068e-005  7.8118939e-008            
1.1996001e-005  7.9037416e-008            
1.2195935e-005  8.0223135e-008            
1.2395868e-005  8.1176825e-008            
1.2595801e-005  8.1981687e-008            
1.2795735e-005  8.2817367e-008            
1.2995668e-005  8.369827e-008            
1.3195601e-005  8.4603726e-008            
1.3395535e-005  8.5528899e-008            
1.3595468e-005  8.616192e-008            
1.3795402e-005  8.6761902e-008            
1.3995335e-005  8.7658841e-008            
1.4195268e-005  8.8440081e-008            
1.4395202e-005  8.9172205e-008            
1.4595135e-005  8.9878071e-008            
1.4795068e-005  9.0612125e-008            
1.4995002e-005  9.1497709e-008            
1.5194935e-005  9.2325351e-008            
1.5394868e-005  9.3035131e-008            
1.5594802e-005  9.3671345e-008            
1.5794735e-005  9.4356813e-008            
1.5994668e-005  9.4821544e-008            
1.6194602e-005  9.5240503e-008            
1.6394535e-005  9.5822387e-008            
1.6594469e-005  9.6460764e-008            
1.6794402e-005  9.675231e-008            
1.6994335e-005  9.7269264e-008            
1.7194269e-005  9.750677e-008            
1.7394202e-005  9.7861309e-008            
1.7594135e-005  9.8388358e-008            
1.7794069e-005  9.8907265e-008            
1.7994002e-005  9.9386364e-008            
1.8193935e-005  9.9590269e-008            
1.8393869e-005  9.9877462e-008            
1.8593802e-005  1.0028699e-007            
1.8793735e-005  1.0059488e-007            
1.8993669e-005  1.0088276e-007            
1.9193602e-005  1.0124751e-007            
1.9393535e-005  1.0142982e-007            
1.9593469e-005  1.0159345e-007            
1.9793402e-005  1.0164957e-007            
1.9993336e-005  1.017647e-007            
2.0193269e-005  1.0219289e-007            
2.0393202e-005  1.0238947e-007            
2.0593136e-005  1.0233231e-007            
2.0793069e-005  1.0229341e-007            
2.0993002e-005  1.0243911e-007            
2.1192936e-005  1.0304267e-007            
2.1392869e-005  1.033728e-007            
2.1592802e-005  1.0343228e-007            
2.1792736e-005  1.0359088e-007            
2.1992669e-005  1.0382939e-007            
2.2192602e-005  1.041722e-007            
2.2392536e-005  1.0440314e-007            
2.2592469e-005  1.0458417e-007            
2.2792403e-005  1.0487601e-007            
2.2992336e-005  1.0514643e-007            
2.3192269e-005  1.0528623e-007            
2.3392203e-005  1.0541209e-007            
2.3592136e-005  1.0560802e-007            
2.3792069e-005  1.058759e-007            
2.3992003e-005  1.06069e-007            
2.4191936e-005  1.0606591e-007            
2.4391869e-005  1.0618779e-007            
2.4591803e-005  1.0624725e-007            
2.4791736e-005  1.0652559e-007            
2.4991669e-005  1.0658437e-007            
2.5191603e-005  1.0650271e-007            
2.5391536e-005  1.0645864e-007            
2.5591469e-005  1.0647704e-007            
2.5791403e-005  1.065376e-007            
2.5991336e-005  1.0670423e-007            
2.619127e-005  1.0691252e-007            
2.6391203e-005  1.0690627e-007            
2.6591136e-005  1.0685541e-007            
2.679107e-005  1.0677175e-007            
2.6991003e-005  1.0691398e-007            
2.7190936e-005  1.0680743e-007            
2.739087e-005  1.0684713e-007            
2.7590803e-005  1.0691247e-007            
2.7790736e-005  1.0676938e-007            
2.799067e-005  1.0663996e-007            
2.8190603e-005  1.0645362e-007            
2.8390536e-005  1.0640257e-007            
2.859047e-005  1.0627421e-007            
2.8790403e-005  1.0597931e-007            
2.8990337e-005  1.0561728e-007            
2.919027e-005  1.0550032e-007            
2.9390203e-005  1.0532977e-007            
2.9590137e-005  1.050625e-007            
2.979007e-005  1.0472861e-007            
2.9990003e-005  1.0436398e-007            
3.0189937e-005  1.0410073e-007            
3.038987e-005  1.036153e-007            
3.0589803e-005  1.0315972e-007            
3.0789737e-005  1.0267488e-007            
3.098967e-005  1.0243399e-007            
3.1189603e-005  1.02169e-007            
3.1389537e-005  1.016748e-007            
3.158947e-005  1.0119477e-007            
3.1789404e-005  1.0082185e-007            
3.1989337e-005  1.0049197e-007            
3.218927e-005  9.9969109e-008            
3.2389204e-005  9.9442775e-008            
3.2589137e-005  9.8718985e-008            
3.278907e-005  9.826701e-008            
3.2989004e-005  9.758043e-008            
3.3188937e-005  9.7071852e-008            
3.338887e-005  9.6445261e-008            
3.3588804e-005  9.574858e-008            
3.3788737e-005  9.5352091e-008            
3.398867e-005  9.460959e-008            
3.4188604e-005  9.4045672e-008            
3.4388537e-005  9.3400802e-008            
3.458847e-005  9.2727173e-008            
3.4788404e-005  9.2222943e-008            
3.4988337e-005  9.1475349e-008            
3.5188271e-005  9.0641197e-008            
3.5388204e-005  8.9760549e-008            
3.5588137e-005  8.9070386e-008            
3.5788071e-005  8.8297888e-008            
3.5988004e-005  8.755305e-008            
3.6187937e-005  8.6523645e-008            
3.6387871e-005  8.5539113e-008            
3.6587804e-005  8.4581275e-008            
3.6787737e-005  8.360681e-008            
3.6987671e-005  8.2760904e-008            
3.7187604e-005  8.1900231e-008            
3.7387537e-005  8.0818197e-008            
3.7587471e-005  7.9846147e-008            
3.7787404e-005  7.8847514e-008            
3.7987338e-005  7.7562772e-008            
3.8187271e-005  7.6454496e-008            
3.8387204e-005  7.5256621e-008            
3.8587138e-005  7.4035012e-008            
3.8787071e-005  7.253454e-008            
3.8987004e-005  7.0980646e-008            
3.9186938e-005  6.9504223e-008            
3.9386871e-005  6.8064114e-008            
3.9586804e-005  6.6642609e-008            
3.9786738e-005  6.5015396e-008            
3.9986671e-005  6.3304163e-008            
4.0186604e-005  6.18477e-008            
4.0386538e-005  6.0162635e-008            
4.0586471e-005  5.887687e-008            
4.0786405e-005  5.7244569e-008            
4.0986338e-005  5.5663474e-008            
4.1186271e-005  5.4185953e-008            
4.1386205e-005  5.2461548e-008            
4.1586138e-005  5.0855039e-008            
4.1786071e-005  4.9328329e-008            
4.1986005e-005  4.7610874e-008            
4.2185938e-005  4.5917771e-008            
4.2385871e-005  4.4173477e-008            
4.2585805e-005  4.2231144e-008            
4.2785738e-005  4.0609273e-008            
4.2985671e-005  3.9051585e-008            
4.3185605e-005  3.7511554e-008            
4.3385538e-005  3.576405e-008            
4.3585471e-005  3.3888894e-008            
4.3785405e-005  3.2183179e-008            
4.3985338e-005  3.0553e-008            
4.4185272e-005  2.8860933e-008            
4.4385205e-005  2.7128049e-008            
4.4585138e-005  2.5310446e-008            
4.4785072e-005  2.3400281e-008            
4.4985005e-005  2.1641505e-008            
4.5184938e-005  1.9835347e-008            
4.5384872e-005  1.8230001e-008            
4.5584805e-005  1.6688252e-008            
4.5784738e-005  1.4907194e-008            
4.5984672e-005  1.3030327e-008            
4.6184605e-005  1.1197643e-008            
4.6384538e-005  9.7166557e-009            
4.6584472e-005  8.2065593e-009            
4.6784405e-005  6.6404954e-009            
4.6984339e-005  4.7422753e-009            
4.7184272e-005  2.8033762e-009            
4.7384205e-005  1.1673211e-009            
4.7584139e-005  -2.3223181e-010            
4.7784072e-005  -1.7105579e-009            
4.7984005e-005  -3.4257542e-009            
4.8183939e-005  -5.3643066e-009            
4.8383872e-005  -7.2082812e-009            
4.8583805e-005  -8.9097155e-009            
4.8783739e-005  -1.0612039e-008            
4.8983672e-005  -1.2164138e-008            
4.9183605e-005  -1.391449e-008            
4.9383539e-005  -1.5761312e-008            
4.9583472e-005  -1.7547046e-008            
4.9783406e-005  -1.9311432e-008            
4.9983339e-005  -2.0977217e-008            
5.0183272e-005  -2.2531036e-008            
5.0383206e-005  -2.421041e-008            
5.0583139e-005  -2.5992715e-008            
5.0783072e-005  -2.7731739e-008            
5.0983006e-005  -2.9527783e-008            
5.1182939e-005  -3.1107926e-008            
5.1382872e-005  -3.2503845e-008            
5.1582806e-005  -3.4048618e-008            
5.1782739e-005  -3.5729713e-008            
5.1982672e-005  -3.7593786e-008            
5.2182606e-005  -3.9138161e-008            
5.2382539e-005  -4.0676324e-008            
5.2582472e-005  -4.2240619e-008            
5.2782406e-005  -4.3845164e-008            
5.2982339e-005  -4.5624774e-008            
5.3182273e-005  -4.7333764e-008            
5.3382206e-005  -4.9172995e-008            
5.3582139e-005  -5.1001885e-008            
5.3782073e-005  -5.2713165e-008            
5.3982006e-005  -5.4395135e-008            
5.4181939e-005  -5.6183991e-008            
5.4381873e-005  -5.8143583e-008            
5.4581806e-005  -6.0154242e-008            
5.4781739e-005  -6.1809089e-008            
5.4981673e-005  -6.3402867e-008            
5.5181606e-005  -6.515359e-008            
5.5381539e-005  -6.6916701e-008            
5.5581473e-005  -6.8660188e-008            
5.5781406e-005  -7.0200127e-008            
5.598134e-005  -7.1916011e-008            
5.6181273e-005  -7.367098e-008            
5.6381206e-005  -7.5397056e-008            
5.658114e-005  -7.7073645e-008            
5.6781073e-005  -7.8833768e-008            
5.6981006e-005  -8.0690514e-008            
5.718094e-005  -8.2540136e-008            
5.7380873e-005  -8.4163977e-008            
5.7580806e-005  -8.5746264e-008            
5.778074e-005  -8.7519933e-008            
5.7980673e-005  -8.9496607e-008            
5.8180606e-005  -9.1562315e-008            
5.838054e-005  -9.3406888e-008            
5.8580473e-005  -9.5215741e-008            
5.8780407e-005  -9.7251184e-008            
5.898034e-005  -9.927772e-008            
5.9180273e-005  -1.0137004e-007            
5.9380207e-005  -1.0341002e-007            
5.958014e-005  -1.0541927e-007            
5.9780073e-005  -1.073741e-007            
5.9980007e-005  -1.0939738e-007            
6.017994e-005  -1.1144317e-007            
6.0379873e-005  -1.1341013e-007            
6.0579807e-005  -1.1557218e-007            
6.077974e-005  -1.1764769e-007            
6.0979673e-005  -1.1975048e-007            
6.1179607e-005  -1.2155377e-007            
6.137954e-005  -1.2366839e-007            
6.1579473e-005  -1.2579845e-007            
6.1779407e-005  -1.279754e-007            
6.197934e-005  -1.3014196e-007            
6.2179274e-005  -1.3201918e-007            
6.2379207e-005  -1.342e-007            
6.257914e-005  -1.365238e-007            
6.2779074e-005  -1.3898295e-007            
6.2979007e-005  -1.415204e-007            
6.317894e-005  -1.439608e-007            
6.3378874e-005  -1.4626025e-007            
6.3578807e-005  -1.4887325e-007            
6.377874e-005  -1.514276e-007            
6.3978674e-005  -1.5427203e-007            
6.4178607e-005  -1.5693172e-007            
6.437854e-005  -1.5963595e-007            
6.4578474e-005  -1.6222009e-007            
6.4778407e-005  -1.6463058e-007            
6.4978341e-005  -1.6721005e-007            
6.5178274e-005  -1.6985299e-007            
6.5378207e-005  -1.7248233e-007            
6.5578141e-005  -1.750889e-007            
6.5778074e-005  -1.7731049e-007            
6.5978007e-005  -1.7976742e-007            
6.6177941e-005  -1.8229044e-007            
6.6377874e-005  -1.8487655e-007            
6.6577807e-005  -1.8756859e-007            
6.6777741e-005  -1.9002911e-007            
6.6977674e-005  -1.9239494e-007            
6.7177607e-005  -1.9502299e-007            
6.7377541e-005  -1.9758169e-007            
6.7577474e-005  -2.003005e-007            
6.7777407e-005  -2.0299445e-007            
6.7977341e-005  -2.0568327e-007            
6.8177274e-005  -2.0812725e-007            
6.8377208e-005  -2.1051926e-007            
6.8577141e-005  -2.1308978e-007            
6.8777074e-005  -2.1600827e-007            
6.8977008e-005  -2.1883685e-007            
6.9176941e-005  -2.2146955e-007            
6.9376874e-005  -2.239908e-007            
6.9576808e-005  -2.2643782e-007            
6.9776741e-005  -2.2907866e-007            
6.9976674e-005  -2.3188898e-007            
7.0176608e-005  -2.3440383e-007            
7.0376541e-005  -2.3692547e-007            
7.0576474e-005  -2.3933268e-007            
7.0776408e-005  -2.4181359e-007            
7.0976341e-005  -2.44382e-007            
7.1176275e-005  -2.4722921e-007            
7.1376208e-005  -2.5011125e-007            
7.1576141e-005  -2.5278677e-007            
7.1776075e-005  -2.5551425e-007            
7.1976008e-005  -2.5814021e-007            
7.2175941e-005  -2.6114004e-007            
7.2375875e-005  -2.6413948e-007            
7.2575808e-005  -2.6706699e-007            
7.2775741e-005  -2.6996735e-007            
7.2975675e-005  -2.7285402e-007            
7.3175608e-005  -2.7562293e-007            
7.3375541e-005  -2.786801e-007            
7.3575475e-005  -2.8197697e-007            
7.3775408e-005  -2.8523841e-007            
7.3975342e-005  -2.8827534e-007            
7.4175275e-005  -2.9098568e-007            
7.4375208e-005  -2.9386531e-007            
7.4575142e-005  -2.9702254e-007            
7.4775075e-005  -3.0025566e-007            
7.4975008e-005  -3.032219e-007            
7.5174942e-005  -3.0603519e-007            
7.5374875e-005  -3.0865744e-007            
7.5574808e-005  -3.1168244e-007            
7.5774742e-005  -3.1477547e-007            
7.5974675e-005  -3.17775e-007            
7.6174608e-005  -3.2071767e-007            
7.6374542e-005  -3.2350451e-007            
7.6574475e-005  -3.2639871e-007            
7.6774408e-005  -3.2923687e-007            
7.6974342e-005  -3.3198172e-007            
7.7174275e-005  -3.3507902e-007            
7.7374209e-005  -3.3803328e-007            
7.7574142e-005  -3.4102092e-007            
7.7774075e-005  -3.4373209e-007            
7.7974009e-005  -3.4660036e-007            
7.8173942e-005  -3.4979986e-007            
7.8373875e-005  -3.5295881e-007            
7.8573809e-005  -3.5614806e-007            
7.8773742e-005  -3.5916504e-007            
7.8973675e-005  -3.62031e-007            
7.9173609e-005  -3.649438e-007            
7.9373542e-005  -3.6775484e-007            
7.9573475e-005  -3.7071807e-007            
7.9773409e-005  -3.7379546e-007            
7.9973342e-005  -3.7684541e-007            
8.0173276e-005  -3.7947624e-007            
8.0373209e-005  -3.8210763e-007            
8.0573142e-005  -3.8478217e-007            
8.0773076e-005  -3.8786802e-007            
8.0973009e-005  -3.9088332e-007            
8.1172942e-005  -3.9363598e-007            
8.1372876e-005  -3.9647153e-007            
8.1572809e-005  -3.9940772e-007            
8.1772742e-005  -4.0242483e-007            
8.1972676e-005  -4.0549357e-007            
8.2172609e-005  -4.0854551e-007            
8.2372542e-005  -4.1159825e-007            
8.2572476e-005  -4.1476169e-007            
8.2772409e-005  -4.1758681e-007            
8.2972343e-005  -4.2040478e-007            
8.3172276e-005  -4.2315248e-007            
8.3372209e-005  -4.2619267e-007            
8.3572143e-005  -4.2947052e-007            
8.3772076e-005  -4.3230784e-007            
8.3972009e-005  -4.3490848e-007            
8.4171943e-005  -4.3748554e-007            
8.4371876e-005  -4.404271e-007            
8.4571809e-005  -4.4339321e-007            
8.4771743e-005  -4.4620978e-007            
8.4971676e-005  -4.4871224e-007            
8.5171609e-005  -4.5101387e-007            
8.5371543e-005  -4.5362649e-007            
8.5571476e-005  -4.5628752e-007            
8.5771409e-005  -4.5890358e-007            
8.5971343e-005  -4.6150885e-007            
8.6171276e-005  -4.6405926e-007            
8.637121e-005  -4.6640135e-007            
8.6571143e-005  -4.6880473e-007            
8.6771076e-005  -4.7125647e-007            
8.697101e-005  -4.7408294e-007            
8.7170943e-005  -4.7673862e-007            
8.7370876e-005  -4.7922489e-007            
8.757081e-005  -4.8162915e-007            
8.7770743e-005  -4.8399055e-007            
8.7970676e-005  -4.8661657e-007            
8.817061e-005  -4.8947636e-007            
8.8370543e-005  -4.9220176e-007            
8.8570476e-005  -4.9460348e-007            
8.877041e-005  -4.9704473e-007            
8.8970343e-005  -4.9938249e-007            
8.9170277e-005  -5.0186751e-007            
8.937021e-005  -5.0455989e-007            
8.9570143e-005  -5.0714876e-007            
8.9770077e-005  -5.0971539e-007            
8.997001e-005  -5.1190085e-007            
9.0169943e-005  -5.1418577e-007            
9.0369877e-005  -5.1652669e-007            
9.056981e-005  -5.1900537e-007            
9.0769743e-005  -5.2166908e-007            
9.0969677e-005  -5.2379355e-007            
9.116961e-005  -5.2600074e-007            
9.1369543e-005  -5.2846916e-007            
9.1569477e-005  -5.3106166e-007            
9.176941e-005  -5.3367024e-007            
9.1969344e-005  -5.3612636e-007            
