Surface Profile             
x       y           
[m]     [m]         
0  -3.6766766e-010            
1.9993336e-007  2.5040362e-010            
3.9986671e-007  8.9774546e-010            
5.9980007e-007  1.6292598e-009            
7.9973342e-007  2.4096528e-009            
9.9966678e-007  2.7631137e-009            
1.1996001e-006  3.2207619e-009            
1.3995335e-006  3.7489814e-009            
1.5994668e-006  4.6124233e-009            
1.7994002e-006  4.9942869e-009            
1.9993336e-006  5.5980858e-009            
2.1992669e-006  6.3184697e-009            
2.3992003e-006  7.0156985e-009            
2.5991336e-006  7.6414224e-009            
2.799067e-006  7.9255292e-009            
2.9990003e-006  8.6011041e-009            
3.1989337e-006  9.4241383e-009            
3.398867e-006  1.0366834e-008            
3.5988004e-006  1.0842856e-008            
3.7987338e-006  1.1240802e-008            
3.9986671e-006  1.1656427e-008            
4.1986005e-006  1.2564652e-008            
4.3985338e-006  1.3251235e-008            
4.5984672e-006  1.412703e-008            
4.7984005e-006  1.4557622e-008            
4.9983339e-006  1.5070647e-008            
5.1982672e-006  1.5400539e-008            
5.3982006e-006  1.5857304e-008            
5.598134e-006  1.6566778e-008            
5.7980673e-006  1.7132926e-008            
5.9980007e-006  1.7691184e-008            
6.197934e-006  1.8060291e-008            
6.3978674e-006  1.8273987e-008            
6.5978007e-006  1.8755037e-008            
6.7977341e-006  1.9261892e-008            
6.9976674e-006  1.9829923e-008            
7.1976008e-006  2.0066689e-008            
7.3975342e-006  2.0220688e-008            
7.5974675e-006  2.0521977e-008            
7.7974009e-006  2.1110481e-008            
7.9973342e-006  2.168341e-008            
8.1972676e-006  2.2161685e-008            
8.3972009e-006  2.2398177e-008            
8.5971343e-006  2.2612423e-008            
8.7970676e-006  2.292955e-008            
8.997001e-006  2.3199354e-008            
9.1969344e-006  2.3740395e-008            
9.3968677e-006  2.4504973e-008            
9.5968011e-006  2.4817961e-008            
9.7967344e-006  2.4903468e-008            
9.9966678e-006  2.4838042e-008            
1.0196601e-005  2.5313127e-008            
1.0396534e-005  2.6338915e-008            
1.0596468e-005  2.7066445e-008            
1.0796401e-005  2.7241572e-008            
1.0996335e-005  2.7409007e-008            
1.1196268e-005  2.7653728e-008            
1.1396201e-005  2.8142243e-008            
1.1596135e-005  2.8626392e-008            
1.1796068e-005  2.8912315e-008            
1.1996001e-005  2.9234871e-008            
1.2195935e-005  2.9525923e-008            
1.2395868e-005  2.9743868e-008            
1.2595801e-005  2.9968614e-008            
1.2795735e-005  3.0423837e-008            
1.2995668e-005  3.0830966e-008            
1.3195601e-005  3.0969163e-008            
1.3395535e-005  3.0992632e-008            
1.3595468e-005  3.0873418e-008            
1.3795402e-005  3.1120183e-008            
1.3995335e-005  3.1633992e-008            
1.4195268e-005  3.1980278e-008            
1.4395202e-005  3.2204907e-008            
1.4595135e-005  3.2275593e-008            
1.4795068e-005  3.219159e-008            
1.4995002e-005  3.237087e-008            
1.5194935e-005  3.2597291e-008            
1.5394868e-005  3.3041852e-008            
1.5594802e-005  3.3260413e-008            
1.5794735e-005  3.3194721e-008            
1.5994668e-005  3.316198e-008            
1.6194602e-005  3.3376632e-008            
1.6394535e-005  3.3732747e-008            
1.6594469e-005  3.4075386e-008            
1.6794402e-005  3.4220146e-008            
1.6994335e-005  3.4250238e-008            
1.7194269e-005  3.450714e-008            
1.7394202e-005  3.4767713e-008            
1.7594135e-005  3.5026785e-008            
1.7794069e-005  3.5330653e-008            
1.7994002e-005  3.5535456e-008            
1.8193935e-005  3.5754633e-008            
1.8393869e-005  3.5767118e-008            
1.8593802e-005  3.595453e-008            
1.8793735e-005  3.6475477e-008            
1.8993669e-005  3.7105608e-008            
1.9193602e-005  3.7709475e-008            
1.9393535e-005  3.8139017e-008            
1.9593469e-005  3.825664e-008            
1.9793402e-005  3.8453288e-008            
1.9993336e-005  3.9111215e-008            
2.0193269e-005  4.0114102e-008            
2.0393202e-005  4.1006266e-008            
2.0593136e-005  4.1668553e-008            
2.0793069e-005  4.2067203e-008            
2.0993002e-005  4.2616817e-008            
2.1192936e-005  4.3432962e-008            
2.1392869e-005  4.4432573e-008            
2.1592802e-005  4.5530426e-008            
2.1792736e-005  4.6404504e-008            
2.1992669e-005  4.6843194e-008            
2.2192602e-005  4.7318143e-008            
2.2392536e-005  4.8046287e-008            
2.2592469e-005  4.8882612e-008            
2.2792403e-005  4.9926817e-008            
2.2992336e-005  5.0740938e-008            
2.3192269e-005  5.1233053e-008            
2.3392203e-005  5.1666026e-008            
2.3592136e-005  5.230185e-008            
2.3792069e-005  5.3225989e-008            
2.3992003e-005  5.4380518e-008            
2.4191936e-005  5.5064857e-008            
2.4391869e-005  5.5465411e-008            
2.4591803e-005  5.5511301e-008            
2.4791736e-005  5.5885386e-008            
2.4991669e-005  5.6899581e-008            
2.5191603e-005  5.7896455e-008            
2.5391536e-005  5.8437251e-008            
2.5591469e-005  5.8617836e-008            
2.5791403e-005  5.866053e-008            
2.5991336e-005  5.9086056e-008            
2.619127e-005  5.9745439e-008            
2.6391203e-005  6.0365969e-008            
2.6591136e-005  6.0728897e-008            
2.679107e-005  6.0875725e-008            
2.6991003e-005  6.0868984e-008            
2.7190936e-005  6.1071699e-008            
2.739087e-005  6.1384795e-008            
2.7590803e-005  6.1965416e-008            
2.7790736e-005  6.2451478e-008            
2.799067e-005  6.2465821e-008            
2.8190603e-005  6.2376295e-008            
2.8390536e-005  6.2450435e-008            
2.859047e-005  6.3018222e-008            
2.8790403e-005  6.3586137e-008            
2.8990337e-005  6.3991741e-008            
2.919027e-005  6.4014776e-008            
2.9390203e-005  6.3889601e-008            
2.9590137e-005  6.3806996e-008            
2.979007e-005  6.4269756e-008            
2.9990003e-005  6.483418e-008            
3.0189937e-005  6.5211996e-008            
3.038987e-005  6.5010903e-008            
3.0589803e-005  6.4804968e-008            
3.0789737e-005  6.494251e-008            
3.098967e-005  6.5409662e-008            
3.1189603e-005  6.5948896e-008            
3.1389537e-005  6.6084834e-008            
3.158947e-005  6.5992262e-008            
3.1789404e-005  6.6100087e-008            
3.1989337e-005  6.5986183e-008            
3.218927e-005  6.6221206e-008            
3.2389204e-005  6.6591302e-008            
3.2589137e-005  6.675526e-008            
3.278907e-005  6.6630286e-008            
3.2989004e-005  6.6467297e-008            
3.3188937e-005  6.6272999e-008            
3.338887e-005  6.6563712e-008            
3.3588804e-005  6.6793804e-008            
3.3788737e-005  6.6893647e-008            
3.398867e-005  6.6728992e-008            
3.4188604e-005  6.6595419e-008            
3.4388537e-005  6.6664189e-008            
3.458847e-005  6.6796782e-008            
3.4788404e-005  6.6910488e-008            
3.4988337e-005  6.7152473e-008            
3.5188271e-005  6.7204558e-008            
3.5388204e-005  6.7131593e-008            
3.5588137e-005  6.702494e-008            
3.5788071e-005  6.7178143e-008            
3.5988004e-005  6.7700757e-008            
3.6187937e-005  6.8112375e-008            
3.6387871e-005  6.8042676e-008            
3.6587804e-005  6.7988496e-008            
3.6787737e-005  6.8223669e-008            
3.6987671e-005  6.8782144e-008            
3.7187604e-005  6.9185866e-008            
3.7387537e-005  6.9222001e-008            
3.7587471e-005  6.9243321e-008            
3.7787404e-005  6.9437884e-008            
3.7987338e-005  6.9640725e-008            
3.8187271e-005  6.9850472e-008            
3.8387204e-005  7.00561e-008            
3.8587138e-005  7.0490471e-008            
3.8787071e-005  7.0855797e-008            
3.8987004e-005  7.122587e-008            
3.9186938e-005  7.1373424e-008            
3.9386871e-005  7.1855111e-008            
3.9586804e-005  7.2415962e-008            
3.9786738e-005  7.2912467e-008            
3.9986671e-005  7.2996665e-008            
4.0186604e-005  7.3236482e-008            
4.0386538e-005  7.3666958e-008            
4.0586471e-005  7.4247668e-008            
4.0786405e-005  7.4921112e-008            
4.0986338e-005  7.5240898e-008            
4.1186271e-005  7.5621814e-008            
4.1386205e-005  7.5892225e-008            
4.1586138e-005  7.6131545e-008            
4.1786071e-005  7.6588269e-008            
4.1986005e-005  7.7011077e-008            
4.2185938e-005  7.7305984e-008            
4.2385871e-005  7.761566e-008            
4.2585805e-005  7.7663294e-008            
4.2785738e-005  7.7822117e-008            
4.2985671e-005  7.8255086e-008            
4.3185605e-005  7.8441365e-008            
4.3385538e-005  7.8747801e-008            
4.3585471e-005  7.8661915e-008            
4.3785405e-005  7.8652916e-008            
4.3985338e-005  7.8633728e-008            
4.4185272e-005  7.8843808e-008            
4.4385205e-005  7.9120887e-008            
4.4585138e-005  7.9153306e-008            
4.4785072e-005  7.8994674e-008            
4.4985005e-005  7.8780137e-008            
4.5184938e-005  7.8567456e-008            
4.5384872e-005  7.8629853e-008            
4.5584805e-005  7.8879064e-008            
4.5784738e-005  7.9032141e-008            
4.5984672e-005  7.885574e-008            
4.6184605e-005  7.8584158e-008            
4.6384538e-005  7.839211e-008            
4.6584472e-005  7.8527993e-008            
4.6784405e-005  7.8863149e-008            
4.6984339e-005  7.8787821e-008            
4.7184272e-005  7.8529649e-008            
4.7384205e-005  7.8063523e-008            
4.7584139e-005  7.7917029e-008            
4.7784072e-005  7.7984215e-008            
4.7984005e-005  7.8375682e-008            
4.8183939e-005  7.8370479e-008            
4.8383872e-005  7.7893416e-008            
4.8583805e-005  7.7513975e-008            
4.8783739e-005  7.7274436e-008            
4.8983672e-005  7.7308952e-008            
4.9183605e-005  7.7665706e-008            
4.9383539e-005  7.7608163e-008            
4.9583472e-005  7.7298777e-008            
4.9783406e-005  7.6982692e-008            
4.9983339e-005  7.6728087e-008            
5.0183272e-005  7.6924802e-008            
5.0383206e-005  7.6994376e-008            
5.0583139e-005  7.7069779e-008            
5.0783072e-005  7.6765146e-008            
5.0983006e-005  7.6239291e-008            
5.1182939e-005  7.5851883e-008            
5.1382872e-005  7.5800632e-008            
5.1582806e-005  7.5992606e-008            
5.1782739e-005  7.5809841e-008            
5.1982672e-005  7.541515e-008            
5.2182606e-005  7.4836832e-008            
5.2382539e-005  7.4423292e-008            
5.2582472e-005  7.4377766e-008            
5.2782406e-005  7.4264727e-008            
5.2982339e-005  7.4018864e-008            
5.3182273e-005  7.3479187e-008            
5.3382206e-005  7.2925111e-008            
5.3582139e-005  7.2443597e-008            
5.3782073e-005  7.2101464e-008            
5.3982006e-005  7.1795637e-008            
5.4181939e-005  7.1514319e-008            
5.4381873e-005  7.1080497e-008            
5.4581806e-005  7.0612185e-008            
5.4781739e-005  7.0125398e-008            
5.4981673e-005  6.9738004e-008            
5.5181606e-005  6.9616319e-008            
5.5381539e-005  6.9367578e-008            
5.5581473e-005  6.8828187e-008            
5.5781406e-005  6.8245528e-008            
5.598134e-005  6.7797951e-008            
5.6181273e-005  6.7279125e-008            
5.6381206e-005  6.7061565e-008            
5.658114e-005  6.6937297e-008            
5.6781073e-005  6.6554175e-008            
5.6981006e-005  6.6198033e-008            
5.718094e-005  6.549261e-008            
5.7380873e-005  6.4917616e-008            
5.7580806e-005  6.47595e-008            
5.778074e-005  6.4598237e-008            
5.7980673e-005  6.4279681e-008            
5.8180606e-005  6.364174e-008            
5.838054e-005  6.3004314e-008            
5.8580473e-005  6.2514857e-008            
5.8780407e-005  6.2307539e-008            
5.898034e-005  6.1933381e-008            
5.9180273e-005  6.1435019e-008            
5.9380207e-005  6.077787e-008            
5.958014e-005  6.0244217e-008            
5.9780073e-005  5.9740113e-008            
5.9980007e-005  5.9335097e-008            
6.017994e-005  5.8982768e-008            
6.0379873e-005  5.8701121e-008            
6.0579807e-005  5.8313588e-008            
6.077974e-005  5.7654195e-008            
6.0979673e-005  5.7088339e-008            
6.1179607e-005  5.690844e-008            
6.137954e-005  5.6797341e-008            
6.1579473e-005  5.672773e-008            
6.1779407e-005  5.6426402e-008            
6.197934e-005  5.6010032e-008            
6.2179274e-005  5.5767381e-008            
6.2379207e-005  5.5831657e-008            
6.257914e-005  5.5843302e-008            
6.2779074e-005  5.5981673e-008            
6.2979007e-005  5.5798727e-008            
6.317894e-005  5.5737139e-008            
6.3378874e-005  5.5671666e-008            
6.3578807e-005  5.5673545e-008            
6.377874e-005  5.5702848e-008            
6.3978674e-005  5.5685684e-008            
6.4178607e-005  5.5700751e-008            
6.437854e-005  5.5688261e-008            
6.4578474e-005  5.54537e-008            
6.4778407e-005  5.5505366e-008            
6.4978341e-005  5.5791331e-008            
6.5178274e-005  5.5891518e-008            
6.5378207e-005  5.5749502e-008            
6.5578141e-005  5.5325763e-008            
6.5778074e-005  5.5128947e-008            
6.5978007e-005  5.5306722e-008            
6.6177941e-005  5.537595e-008            
6.6377874e-005  5.5367564e-008            
6.6577807e-005  5.5107863e-008            
6.6777741e-005  5.4807934e-008            
6.6977674e-005  5.4644437e-008            
6.7177607e-005  5.4701178e-008            
6.7377541e-005  5.4742408e-008            
6.7577474e-005  5.4668154e-008            
6.7777407e-005  5.4451326e-008            
6.7977341e-005  5.4002825e-008            
6.8177274e-005  5.3783269e-008            
6.8377208e-005  5.3654519e-008            
6.8577141e-005  5.357205e-008            
6.8777074e-005  5.3280396e-008            
6.8977008e-005  5.2960186e-008            
6.9176941e-005  5.2358457e-008            
6.9376874e-005  5.1986974e-008            
6.9576808e-005  5.2004538e-008            
6.9776741e-005  5.1642864e-008            
6.9976674e-005  5.120759e-008            
7.0176608e-005  5.0643566e-008            
7.0376541e-005  5.0094652e-008            
7.0576474e-005  4.964087e-008            
7.0776408e-005  4.924696e-008            
7.0976341e-005  4.8717029e-008            
7.1176275e-005  4.8289499e-008            
7.1376208e-005  4.7652183e-008            
7.1576141e-005  4.7006319e-008            
7.1776075e-005  4.6422747e-008            
7.1976008e-005  4.5927789e-008            
7.2175941e-005  4.569158e-008            
7.2375875e-005  4.5243904e-008            
7.2575808e-005  4.4282139e-008            
7.2775741e-005  4.3406295e-008            
7.2975675e-005  4.2789296e-008            
7.3175608e-005  4.2418684e-008            
7.3375541e-005  4.1842175e-008            
7.3575475e-005  4.089684e-008            
7.3775408e-005  3.9833411e-008            
7.3975342e-005  3.8845867e-008            
7.4175275e-005  3.8071179e-008            
7.4375208e-005  3.7370917e-008            
7.4575142e-005  3.6405784e-008            
7.4775075e-005  3.5473717e-008            
7.4975008e-005  3.4198913e-008            
7.5174942e-005  3.305997e-008            
7.5374875e-005  3.2086654e-008            
7.5574808e-005  3.1151734e-008            
7.5774742e-005  3.0174004e-008            
7.5974675e-005  2.9099262e-008            
7.6174608e-005  2.7837271e-008            
7.6374542e-005  2.6592278e-008            
7.6574475e-005  2.5174194e-008            
7.6774408e-005  2.42658e-008            
7.6974342e-005  2.3282912e-008            
7.7174275e-005  2.2154967e-008            
7.7374209e-005  2.0908228e-008            
7.7574142e-005  1.9507598e-008            
7.7774075e-005  1.8260445e-008            
7.7974009e-005  1.717414e-008            
7.8173942e-005  1.6159446e-008            
7.8373875e-005  1.4706885e-008            
7.8573809e-005  1.3271467e-008            
7.8773742e-005  1.1716587e-008            
7.8973675e-005  1.0352028e-008            
7.9173609e-005  8.9841797e-009            
7.9373542e-005  7.5893745e-009            
7.9573475e-005  6.0027538e-009            
7.9773409e-005  4.5015881e-009            
7.9973342e-005  2.9082275e-009            
8.0173276e-005  1.5074754e-009            
8.0373209e-005  1.1954315e-010            
8.0573142e-005  -1.1541957e-009            
8.0773076e-005  -2.5490302e-009            
8.0973009e-005  -4.0097119e-009            
8.1172942e-005  -5.5108782e-009            
8.1372876e-005  -6.8897242e-009            
8.1572809e-005  -8.074777e-009            
8.1772742e-005  -9.3422723e-009            
8.1972676e-005  -1.059558e-008            
8.2172609e-005  -1.1772303e-008            
8.2372542e-005  -1.3327228e-008            
8.2572476e-005  -1.4788375e-008            
8.2772409e-005  -1.6268231e-008            
8.2972343e-005  -1.7347291e-008            
8.3172276e-005  -1.8402866e-008            
8.3372209e-005  -1.9727548e-008            
8.3572143e-005  -2.1236051e-008            
8.3772076e-005  -2.2599183e-008            
8.3972009e-005  -2.3894307e-008            
8.4171943e-005  -2.4925476e-008            
8.4371876e-005  -2.6215687e-008            
8.4571809e-005  -2.7631053e-008            
8.4771743e-005  -2.9017715e-008            
8.4971676e-005  -3.0334827e-008            
8.5171609e-005  -3.1605539e-008            
8.5371543e-005  -3.2839117e-008            
8.5571476e-005  -3.4141178e-008            
8.5771409e-005  -3.5334803e-008            
8.5971343e-005  -3.6634845e-008            
8.6171276e-005  -3.805714e-008            
8.637121e-005  -3.9526954e-008            
8.6571143e-005  -4.0819505e-008            
8.6771076e-005  -4.1863063e-008            
8.697101e-005  -4.3028675e-008            
8.7170943e-005  -4.4367597e-008            
8.7370876e-005  -4.5961857e-008            
8.757081e-005  -4.7290591e-008            
8.7770743e-005  -4.8613488e-008            
8.7970676e-005  -4.9650488e-008            
8.817061e-005  -5.097823e-008            
8.8370543e-005  -5.2617967e-008            
8.8570476e-005  -5.4281836e-008            
8.877041e-005  -5.5558983e-008            
8.8970343e-005  -5.6753771e-008            
8.9170277e-005  -5.8046321e-008            
8.937021e-005  -5.9428445e-008            
8.9570143e-005  -6.0821973e-008            
8.9770077e-005  -6.2262121e-008            
8.997001e-005  -6.3618107e-008            
9.0169943e-005  -6.5061229e-008            
9.0369877e-005  -6.6168125e-008            
9.056981e-005  -6.7295669e-008            
9.0769743e-005  -6.8506265e-008            
9.0969677e-005  -6.9857621e-008            
9.116961e-005  -7.1327805e-008            
9.1369543e-005  -7.2560078e-008            
9.1569477e-005  -7.3449171e-008            
9.176941e-005  -7.4338335e-008            
9.1969344e-005  -7.5695752e-008            
9.2169277e-005  -7.7191272e-008            
9.236921e-005  -7.8604508e-008            
9.2569144e-005  -7.9698239e-008            
