Surface Profile             
x       y           
[m]     [m]         
0  -5.7828405e-009            
1.9993336e-007  -7.1435863e-009            
3.9986671e-007  -8.1035024e-009            
5.9980007e-007  -9.009477e-009            
7.9973342e-007  -9.720768e-009            
9.9966678e-007  -1.0248659e-008            
1.1996001e-006  -1.127337e-008            
1.3995335e-006  -1.2285922e-008            
1.5994668e-006  -1.3153819e-008            
1.7994002e-006  -1.4035157e-008            
1.9993336e-006  -1.4788617e-008            
2.1992669e-006  -1.5943711e-008            
2.3992003e-006  -1.7215552e-008            
2.5991336e-006  -1.851265e-008            
2.799067e-006  -1.9951161e-008            
2.9990003e-006  -2.126267e-008            
3.1989337e-006  -2.2369908e-008            
3.398867e-006  -2.3718003e-008            
3.5988004e-006  -2.5388491e-008            
3.7987338e-006  -2.7210535e-008            
3.9986671e-006  -2.8819625e-008            
4.1986005e-006  -3.0090817e-008            
4.3985338e-006  -3.154046e-008            
4.5984672e-006  -3.318963e-008            
4.7984005e-006  -3.494508e-008            
4.9983339e-006  -3.6710561e-008            
5.1982672e-006  -3.8293272e-008            
5.3982006e-006  -3.9849894e-008            
5.598134e-006  -4.1521338e-008            
5.7980673e-006  -4.3206076e-008            
5.9980007e-006  -4.5018087e-008            
6.197934e-006  -4.6763439e-008            
6.3978674e-006  -4.8708213e-008            
6.5978007e-006  -5.0339693e-008            
6.7977341e-006  -5.1980762e-008            
6.9976674e-006  -5.3600311e-008            
7.1976008e-006  -5.5401069e-008            
7.3975342e-006  -5.7443913e-008            
7.5974675e-006  -5.9330747e-008            
7.7974009e-006  -6.0876887e-008            
7.9973342e-006  -6.2474528e-008            
8.1972676e-006  -6.4418199e-008            
8.3972009e-006  -6.6558861e-008            
8.5971343e-006  -6.8702635e-008            
8.7970676e-006  -7.0593779e-008            
8.997001e-006  -7.2603019e-008            
9.1969344e-006  -7.4684538e-008            
9.3968677e-006  -7.665549e-008            
9.5968011e-006  -7.8798068e-008            
9.7967344e-006  -8.1226528e-008            
9.9966678e-006  -8.3653503e-008            
1.0196601e-005  -8.5975978e-008            
1.0396534e-005  -8.8021937e-008            
1.0596468e-005  -9.0046345e-008            
1.0796401e-005  -9.2433994e-008            
1.0996335e-005  -9.4824627e-008            
1.1196268e-005  -9.7149623e-008            
1.1396201e-005  -9.9150447e-008            
1.1596135e-005  -1.0115921e-007            
1.1796068e-005  -1.0326766e-007            
1.1996001e-005  -1.0554584e-007            
1.2195935e-005  -1.0788105e-007            
1.2395868e-005  -1.1021839e-007            
1.2595801e-005  -1.125398e-007            
1.2795735e-005  -1.1471711e-007            
1.2995668e-005  -1.1676878e-007            
1.3195601e-005  -1.1899895e-007            
1.3395535e-005  -1.2145304e-007            
1.3595468e-005  -1.2393738e-007            
1.3795402e-005  -1.2620202e-007            
1.3995335e-005  -1.2838384e-007            
1.4195268e-005  -1.3052348e-007            
1.4395202e-005  -1.3277804e-007            
1.4595135e-005  -1.3510083e-007            
1.4795068e-005  -1.376187e-007            
1.4995002e-005  -1.3978252e-007            
1.5194935e-005  -1.4176869e-007            
1.5394868e-005  -1.4376129e-007            
1.5594802e-005  -1.4604793e-007            
1.5794735e-005  -1.4835148e-007            
1.5994668e-005  -1.508499e-007            
1.6194602e-005  -1.5309656e-007            
1.6394535e-005  -1.5533652e-007            
1.6594469e-005  -1.5734526e-007            
1.6794402e-005  -1.5936877e-007            
1.6994335e-005  -1.6169692e-007            
1.7194269e-005  -1.6430869e-007            
1.7394202e-005  -1.6659077e-007            
1.7594135e-005  -1.6862812e-007            
1.7794069e-005  -1.7034925e-007            
1.7994002e-005  -1.7263711e-007            
1.8193935e-005  -1.7513741e-007            
1.8393869e-005  -1.775757e-007            
1.8593802e-005  -1.7969426e-007            
1.8793735e-005  -1.8176274e-007            
1.8993669e-005  -1.8374874e-007            
1.9193602e-005  -1.8594841e-007            
1.9393535e-005  -1.8822095e-007            
1.9593469e-005  -1.9067172e-007            
1.9793402e-005  -1.9292091e-007            
1.9993336e-005  -1.9494723e-007            
2.0193269e-005  -1.9684018e-007            
2.0393202e-005  -1.9869709e-007            
2.0593136e-005  -2.0098935e-007            
2.0793069e-005  -2.0355385e-007            
2.0993002e-005  -2.0589025e-007            
2.1192936e-005  -2.078606e-007            
2.1392869e-005  -2.0964367e-007            
2.1592802e-005  -2.1186313e-007            
2.1792736e-005  -2.1437857e-007            
2.1992669e-005  -2.1675345e-007            
2.2192602e-005  -2.1904268e-007            
2.2392536e-005  -2.2124325e-007            
2.2592469e-005  -2.2340207e-007            
2.2792403e-005  -2.2580705e-007            
2.2992336e-005  -2.2820648e-007            
2.3192269e-005  -2.3081859e-007            
2.3392203e-005  -2.3347384e-007            
2.3592136e-005  -2.3571603e-007            
2.3792069e-005  -2.3781447e-007            
2.3992003e-005  -2.4009805e-007            
2.4191936e-005  -2.4272793e-007            
2.4391869e-005  -2.4553113e-007            
2.4591803e-005  -2.4785102e-007            
2.4791736e-005  -2.5007247e-007            
2.4991669e-005  -2.5217861e-007            
2.5191603e-005  -2.5444589e-007            
2.5391536e-005  -2.5688098e-007            
2.5591469e-005  -2.5933323e-007            
2.5791403e-005  -2.6168896e-007            
2.5991336e-005  -2.6399574e-007            
2.619127e-005  -2.6606342e-007            
2.6391203e-005  -2.6821467e-007            
2.6591136e-005  -2.7047009e-007            
2.679107e-005  -2.729131e-007            
2.6991003e-005  -2.7514005e-007            
2.7190936e-005  -2.7712383e-007            
2.739087e-005  -2.7907778e-007            
2.7590803e-005  -2.811789e-007            
2.7790736e-005  -2.8358058e-007            
2.799067e-005  -2.8580954e-007            
2.8190603e-005  -2.8781868e-007            
2.8390536e-005  -2.8979677e-007            
2.859047e-005  -2.9169222e-007            
2.8790403e-005  -2.9363699e-007            
2.8990337e-005  -2.9556118e-007            
2.919027e-005  -2.976829e-007            
2.9390203e-005  -2.995055e-007            
2.9590137e-005  -3.0129331e-007            
2.979007e-005  -3.0282138e-007            
2.9990003e-005  -3.0443603e-007            
3.0189937e-005  -3.0641449e-007            
3.038987e-005  -3.0809491e-007            
3.0589803e-005  -3.0978669e-007            
3.0789737e-005  -3.112065e-007            
3.098967e-005  -3.1252794e-007            
3.1189603e-005  -3.1415415e-007            
3.1389537e-005  -3.1559373e-007            
3.158947e-005  -3.1696369e-007            
3.1789404e-005  -3.1844278e-007            
3.1989337e-005  -3.196022e-007            
3.218927e-005  -3.2083148e-007            
3.2389204e-005  -3.2200019e-007            
3.2589137e-005  -3.23276e-007            
3.278907e-005  -3.2462335e-007            
3.2989004e-005  -3.2596646e-007            
3.3188937e-005  -3.2701062e-007            
3.338887e-005  -3.279714e-007            
3.3588804e-005  -3.2904127e-007            
3.3788737e-005  -3.3045286e-007            
3.398867e-005  -3.3164006e-007            
3.4188604e-005  -3.3270321e-007            
3.4388537e-005  -3.3354261e-007            
3.458847e-005  -3.343819e-007            
3.4788404e-005  -3.3526356e-007            
3.4988337e-005  -3.3607315e-007            
3.5188271e-005  -3.3684203e-007            
3.5388204e-005  -3.3766371e-007            
3.5588137e-005  -3.3830567e-007            
3.5788071e-005  -3.3875468e-007            
3.5988004e-005  -3.3903776e-007            
3.6187937e-005  -3.3960705e-007            
3.6387871e-005  -3.4029557e-007            
3.6587804e-005  -3.4069623e-007            
3.6787737e-005  -3.4089046e-007            
3.6987671e-005  -3.4091677e-007            
3.7187604e-005  -3.4090708e-007            
3.7387537e-005  -3.4106149e-007            
3.7587471e-005  -3.4117957e-007            
3.7787404e-005  -3.4111715e-007            
3.7987338e-005  -3.4097493e-007            
3.8187271e-005  -3.4078236e-007            
3.8387204e-005  -3.4042899e-007            
3.8587138e-005  -3.4020093e-007            
3.8787071e-005  -3.3991026e-007            
3.8987004e-005  -3.3986479e-007            
3.9186938e-005  -3.3960934e-007            
3.9386871e-005  -3.387546e-007            
3.9586804e-005  -3.3808748e-007            
3.9786738e-005  -3.3761424e-007            
3.9986671e-005  -3.3745161e-007            
4.0186604e-005  -3.3700266e-007            
4.0386538e-005  -3.3621815e-007            
4.0586471e-005  -3.3518113e-007            
4.0786405e-005  -3.3423088e-007            
4.0986338e-005  -3.3354572e-007            
4.1186271e-005  -3.327004e-007            
4.1386205e-005  -3.3181741e-007            
4.1586138e-005  -3.3074142e-007            
4.1786071e-005  -3.2956253e-007            
4.1986005e-005  -3.283209e-007            
4.2185938e-005  -3.271117e-007            
4.2385871e-005  -3.2585717e-007            
4.2585805e-005  -3.2477912e-007            
4.2785738e-005  -3.2343707e-007            
4.2985671e-005  -3.2188725e-007            
4.3185605e-005  -3.2039584e-007            
4.3385538e-005  -3.1900532e-007            
4.3585471e-005  -3.1770029e-007            
4.3785405e-005  -3.1643816e-007            
4.3985338e-005  -3.1471604e-007            
4.4185272e-005  -3.1302197e-007            
4.4385205e-005  -3.1130481e-007            
4.4585138e-005  -3.1009676e-007            
4.4785072e-005  -3.0913754e-007            
4.4985005e-005  -3.0793363e-007            
4.5184938e-005  -3.062621e-007            
4.5384872e-005  -3.0454319e-007            
4.5584805e-005  -3.0277116e-007            
4.5784738e-005  -3.0141702e-007            
4.5984672e-005  -3.0016052e-007            
4.6184605e-005  -2.9883831e-007            
4.6384538e-005  -2.9721636e-007            
4.6584472e-005  -2.950978e-007            
4.6784405e-005  -2.9290964e-007            
4.6984339e-005  -2.9101789e-007            
4.7184272e-005  -2.8929669e-007            
4.7384205e-005  -2.8764464e-007            
4.7584139e-005  -2.8542761e-007            
4.7784072e-005  -2.8298824e-007            
4.7984005e-005  -2.8057627e-007            
4.8183939e-005  -2.784737e-007            
4.8383872e-005  -2.7648622e-007            
4.8583805e-005  -2.7449716e-007            
4.8783739e-005  -2.7223058e-007            
4.8983672e-005  -2.6980231e-007            
4.9183605e-005  -2.6724736e-007            
4.9383539e-005  -2.6498511e-007            
4.9583472e-005  -2.6334229e-007            
4.9783406e-005  -2.6142501e-007            
4.9983339e-005  -2.5925518e-007            
5.0183272e-005  -2.5658318e-007            
5.0383206e-005  -2.5392572e-007            
5.0583139e-005  -2.5158753e-007            
5.0783072e-005  -2.4967144e-007            
5.0983006e-005  -2.4760959e-007            
5.1182939e-005  -2.4524273e-007            
5.1382872e-005  -2.4245579e-007            
5.1582806e-005  -2.3983077e-007            
5.1782739e-005  -2.3737614e-007            
5.1982672e-005  -2.3502477e-007            
5.2182606e-005  -2.3274562e-007            
5.2382539e-005  -2.3040844e-007            
5.2582472e-005  -2.2763676e-007            
5.2782406e-005  -2.2505107e-007            
5.2982339e-005  -2.2241617e-007            
5.3182273e-005  -2.202073e-007            
5.3382206e-005  -2.1805645e-007            
5.3582139e-005  -2.1580442e-007            
5.3782073e-005  -2.131523e-007            
5.3982006e-005  -2.1068025e-007            
5.4181939e-005  -2.0850647e-007            
5.4381873e-005  -2.0672306e-007            
5.4581806e-005  -2.0486981e-007            
5.4781739e-005  -2.0297332e-007            
5.4981673e-005  -2.0058382e-007            
5.5181606e-005  -1.9832173e-007            
5.5381539e-005  -1.9631063e-007            
5.5581473e-005  -1.947298e-007            
5.5781406e-005  -1.9330539e-007            
5.598134e-005  -1.9155958e-007            
5.6181273e-005  -1.8929619e-007            
5.6381206e-005  -1.8692146e-007            
5.658114e-005  -1.846984e-007            
5.6781073e-005  -1.8304848e-007            
5.6981006e-005  -1.8145012e-007            
5.718094e-005  -1.7957538e-007            
5.7380873e-005  -1.7756438e-007            
5.7580806e-005  -1.7546801e-007            
5.778074e-005  -1.7335909e-007            
5.7980673e-005  -1.7151898e-007            
5.8180606e-005  -1.6981834e-007            
5.838054e-005  -1.6828002e-007            
5.8580473e-005  -1.6635778e-007            
5.8780407e-005  -1.641204e-007            
5.898034e-005  -1.6197075e-007            
5.9180273e-005  -1.6026921e-007            
5.9380207e-005  -1.5883586e-007            
5.958014e-005  -1.5706366e-007            
5.9780073e-005  -1.5490544e-007            
5.9980007e-005  -1.5257908e-007            
6.017994e-005  -1.5069651e-007            
6.0379873e-005  -1.4910955e-007            
6.0579807e-005  -1.4772256e-007            
6.077974e-005  -1.4610972e-007            
6.0979673e-005  -1.4413088e-007            
6.1179607e-005  -1.4198571e-007            
6.137954e-005  -1.3979415e-007            
6.1579473e-005  -1.3798535e-007            
6.1779407e-005  -1.3640787e-007            
6.197934e-005  -1.3494239e-007            
6.2179274e-005  -1.3332181e-007            
6.2379207e-005  -1.3124535e-007            
6.257914e-005  -1.2934447e-007            
6.2779074e-005  -1.2771064e-007            
6.2979007e-005  -1.2636996e-007            
6.317894e-005  -1.2506515e-007            
6.3378874e-005  -1.2330027e-007            
6.3578807e-005  -1.2151331e-007            
6.377874e-005  -1.1984306e-007            
6.3978674e-005  -1.1835912e-007            
6.4178607e-005  -1.172522e-007            
6.437854e-005  -1.1627913e-007            
6.4578474e-005  -1.1492812e-007            
6.4778407e-005  -1.1347936e-007            
6.4978341e-005  -1.1181545e-007            
6.5178274e-005  -1.1046702e-007            
6.5378207e-005  -1.0952335e-007            
6.5578141e-005  -1.0879942e-007            
6.5778074e-005  -1.0742868e-007            
6.5978007e-005  -1.0575873e-007            
6.6177941e-005  -1.0398402e-007            
6.6377874e-005  -1.0252571e-007            
6.6577807e-005  -1.0137135e-007            
6.6777741e-005  -9.9994194e-008            
6.6977674e-005  -9.8578772e-008            
6.7177607e-005  -9.706865e-008            
6.7377541e-005  -9.5459929e-008            
6.7577474e-005  -9.4049167e-008            
6.7777407e-005  -9.2628297e-008            
6.7977341e-005  -9.1098266e-008            
6.8177274e-005  -8.9454146e-008            
6.8377208e-005  -8.7944426e-008            
6.8577141e-005  -8.6295306e-008            
6.8777074e-005  -8.4752668e-008            
6.8977008e-005  -8.3334924e-008            
6.9176941e-005  -8.1970065e-008            
6.9376874e-005  -8.0466647e-008            
6.9576808e-005  -7.869436e-008            
6.9776741e-005  -7.6942665e-008            
6.9976674e-005  -7.5599308e-008            
7.0176608e-005  -7.436365e-008            
7.0376541e-005  -7.293576e-008            
7.0576474e-005  -7.1335197e-008            
7.0776408e-005  -6.962595e-008            
7.0976341e-005  -6.816728e-008            
7.1176275e-005  -6.6709555e-008            
7.1376208e-005  -6.515462e-008            
7.1576141e-005  -6.3625045e-008            
7.1776075e-005  -6.1983781e-008            
7.1976008e-005  -6.008358e-008            
7.2175941e-005  -5.8164752e-008            
7.2375875e-005  -5.6262346e-008            
7.2575808e-005  -5.4544671e-008            
7.2775741e-005  -5.2871905e-008            
7.2975675e-005  -5.101026e-008            
7.3175608e-005  -4.908095e-008            
7.3375541e-005  -4.7279583e-008            
7.3575475e-005  -4.5611774e-008            
7.3775408e-005  -4.4032879e-008            
7.3975342e-005  -4.2184186e-008            
7.4175275e-005  -4.0507696e-008            
7.4375208e-005  -3.885219e-008            
7.4575142e-005  -3.7206657e-008            
7.4775075e-005  -3.5495802e-008            
7.4975008e-005  -3.393714e-008            
7.5174942e-005  -3.2506531e-008            
7.5374875e-005  -3.0732681e-008            
7.5574808e-005  -2.882231e-008            
7.5774742e-005  -2.7007208e-008            
7.5974675e-005  -2.5322445e-008            
7.6174608e-005  -2.3843124e-008            
7.6374542e-005  -2.2234609e-008            
7.6574475e-005  -2.0373027e-008            
7.6774408e-005  -1.8472555e-008            
7.6974342e-005  -1.6635089e-008            
7.7174275e-005  -1.4793745e-008            
7.7374209e-005  -1.3010258e-008            
7.7574142e-005  -1.1365938e-008            
7.7774075e-005  -9.6922348e-009            
7.7974009e-005  -7.9944997e-009            
7.8173942e-005  -6.1282275e-009            
7.8373875e-005  -4.5326392e-009            
7.8573809e-005  -2.8028878e-009            
7.8773742e-005  -1.230573e-009            
7.8973675e-005  4.6331948e-010            
7.9173609e-005  2.139416e-009            
7.9373542e-005  3.7426044e-009            
7.9573475e-005  5.3234228e-009            
7.9773409e-005  6.8385597e-009            
7.9973342e-005  8.4015069e-009            
8.0173276e-005  1.0059495e-008            
8.0373209e-005  1.1815212e-008            
8.0573142e-005  1.3644405e-008            
8.0773076e-005  1.5517798e-008            
8.0973009e-005  1.7139553e-008            
8.1172942e-005  1.8815136e-008            
8.1372876e-005  2.0601059e-008            
8.1572809e-005  2.2779641e-008            
8.1772742e-005  2.4845637e-008            
8.1972676e-005  2.6765049e-008            
8.2172609e-005  2.8432176e-008            
8.2372542e-005  3.0070752e-008            
8.2572476e-005  3.1821566e-008            
8.2772409e-005  3.3674095e-008            
8.2972343e-005  3.5476331e-008            
8.3172276e-005  3.7129105e-008            
8.3372209e-005  3.9033787e-008            
8.3572143e-005  4.0630243e-008            
8.3772076e-005  4.2112457e-008            
8.3972009e-005  4.3914291e-008            
8.4171943e-005  4.5615814e-008            
8.4371876e-005  4.7273351e-008            
8.4571809e-005  4.8422672e-008            
8.4771743e-005  4.9615395e-008            
8.4971676e-005  5.0928002e-008            
8.5171609e-005  5.2481229e-008            
8.5371543e-005  5.3944742e-008            
8.5571476e-005  5.5397391e-008            
8.5771409e-005  5.658753e-008            
8.5971343e-005  5.7815361e-008            
8.6171276e-005  5.8980095e-008            
8.637121e-005  6.042381e-008            
8.6571143e-005  6.1806056e-008            
8.6771076e-005  6.3152992e-008            
8.697101e-005  6.4322375e-008            
8.7170943e-005  6.548199e-008            
8.7370876e-005  6.6506494e-008            
8.757081e-005  6.7768386e-008            
8.7770743e-005  6.9134578e-008            
8.7970676e-005  7.0441023e-008            
8.817061e-005  7.1575913e-008            
8.8370543e-005  7.2524153e-008            
8.8570476e-005  7.3538852e-008            
8.877041e-005  7.4682859e-008            
8.8970343e-005  7.5587075e-008            
8.9170277e-005  7.6679076e-008            
8.937021e-005  7.7820367e-008            
8.9570143e-005  7.8817638e-008            
8.9770077e-005  7.9921839e-008            
8.997001e-005  8.0995406e-008            
9.0169943e-005  8.1995734e-008            
9.0369877e-005  8.3229937e-008            
9.056981e-005  8.4176384e-008            
9.0769743e-005  8.5238505e-008            
9.0969677e-005  8.6290879e-008            
