Surface Profile             
x       y           
[m]     [m]         
0  -2.1028094e-009            
1.9993336e-007  -3.5470202e-009            
3.9986671e-007  -4.6833968e-009            
5.9980007e-007  -5.7425219e-009            
7.9973342e-007  -6.5029145e-009            
9.9966678e-007  -7.1519929e-009            
1.1996001e-006  -7.7073269e-009            
1.3995335e-006  -8.8072726e-009            
1.5994668e-006  -9.7522266e-009            
1.7994002e-006  -1.0575165e-008            
1.9993336e-006  -1.1475399e-008            
2.1992669e-006  -1.2315325e-008            
2.3992003e-006  -1.3027644e-008            
2.5991336e-006  -1.3832657e-008            
2.799067e-006  -1.4753503e-008            
2.9990003e-006  -1.5644866e-008            
3.1989337e-006  -1.6581042e-008            
3.398867e-006  -1.6968945e-008            
3.5988004e-006  -1.7723164e-008            
3.7987338e-006  -1.8650592e-008            
3.9986671e-006  -1.9783409e-008            
4.1986005e-006  -2.0681427e-008            
4.3985338e-006  -2.1351667e-008            
4.5984672e-006  -2.1872046e-008            
4.7984005e-006  -2.2796285e-008            
4.9983339e-006  -2.3647378e-008            
5.1982672e-006  -2.4429085e-008            
5.3982006e-006  -2.5454181e-008            
5.598134e-006  -2.6284656e-008            
5.7980673e-006  -2.7098312e-008            
5.9980007e-006  -2.7688823e-008            
6.197934e-006  -2.838962e-008            
6.3978674e-006  -2.9494104e-008            
6.5978007e-006  -3.0398181e-008            
6.7977341e-006  -3.1093331e-008            
6.9976674e-006  -3.1373975e-008            
7.1976008e-006  -3.2038194e-008            
7.3975342e-006  -3.2715403e-008            
7.5974675e-006  -3.3675965e-008            
7.7974009e-006  -3.4329486e-008            
7.9973342e-006  -3.4872356e-008            
8.1972676e-006  -3.5137439e-008            
8.3972009e-006  -3.563978e-008            
8.5971343e-006  -3.605593e-008            
8.7970676e-006  -3.6817867e-008            
8.997001e-006  -3.7401892e-008            
9.1969344e-006  -3.79426e-008            
9.3968677e-006  -3.8229881e-008            
9.5968011e-006  -3.8636533e-008            
9.7967344e-006  -3.9090136e-008            
9.9966678e-006  -3.9770217e-008            
1.0196601e-005  -4.0187188e-008            
1.0396534e-005  -4.0468076e-008            
1.0596468e-005  -4.0596017e-008            
1.0796401e-005  -4.091011e-008            
1.0996335e-005  -4.1034254e-008            
1.1196268e-005  -4.1381749e-008            
1.1396201e-005  -4.1549298e-008            
1.1596135e-005  -4.2023042e-008            
1.1796068e-005  -4.194537e-008            
1.1996001e-005  -4.18157e-008            
1.2195935e-005  -4.1874397e-008            
1.2395868e-005  -4.212701e-008            
1.2595801e-005  -4.2368754e-008            
1.2795735e-005  -4.2349782e-008            
1.2995668e-005  -4.2117218e-008            
1.3195601e-005  -4.2143027e-008            
1.3395535e-005  -4.2146503e-008            
1.3595468e-005  -4.2285393e-008            
1.3795402e-005  -4.2095883e-008            
1.3995335e-005  -4.1910431e-008            
1.4195268e-005  -4.1889687e-008            
1.4395202e-005  -4.1856929e-008            
1.4595135e-005  -4.1573438e-008            
1.4795068e-005  -4.1320976e-008            
1.4995002e-005  -4.1293964e-008            
1.5194935e-005  -4.1385768e-008            
1.5394868e-005  -4.1146926e-008            
1.5594802e-005  -4.0752499e-008            
1.5794735e-005  -4.055226e-008            
1.5994668e-005  -4.0384364e-008            
1.6194602e-005  -4.040844e-008            
1.6394535e-005  -4.0069361e-008            
1.6594469e-005  -3.9546596e-008            
1.6794402e-005  -3.9321261e-008            
1.6994335e-005  -3.9120911e-008            
1.7194269e-005  -3.8935455e-008            
1.7394202e-005  -3.8678699e-008            
1.7594135e-005  -3.8597303e-008            
1.7794069e-005  -3.8330483e-008            
1.7994002e-005  -3.8017278e-008            
1.8193935e-005  -3.7476181e-008            
1.8393869e-005  -3.723432e-008            
1.8593802e-005  -3.710045e-008            
1.8793735e-005  -3.6883625e-008            
1.8993669e-005  -3.6600577e-008            
1.9193602e-005  -3.6233234e-008            
1.9393535e-005  -3.6092646e-008            
1.9593469e-005  -3.6156291e-008            
1.9793402e-005  -3.590621e-008            
1.9993336e-005  -3.5668882e-008            
2.0193269e-005  -3.5336273e-008            
2.0393202e-005  -3.5301296e-008            
2.0593136e-005  -3.4986526e-008            
2.0793069e-005  -3.478461e-008            
2.0993002e-005  -3.4668781e-008            
2.1192936e-005  -3.4797773e-008            
2.1392869e-005  -3.4612465e-008            
2.1592802e-005  -3.4591047e-008            
2.1792736e-005  -3.4177328e-008            
2.1992669e-005  -3.4356194e-008            
2.2192602e-005  -3.4457812e-008            
2.2392536e-005  -3.4782928e-008            
2.2592469e-005  -3.475419e-008            
2.2792403e-005  -3.4782042e-008            
2.2992336e-005  -3.4985943e-008            
2.3192269e-005  -3.5510012e-008            
2.3392203e-005  -3.5883129e-008            
2.3592136e-005  -3.617422e-008            
2.3792069e-005  -3.653733e-008            
2.3992003e-005  -3.6607248e-008            
2.4191936e-005  -3.7109871e-008            
2.4391869e-005  -3.7296782e-008            
2.4591803e-005  -3.7810852e-008            
2.4791736e-005  -3.8401243e-008            
2.4991669e-005  -3.8909485e-008            
2.5191603e-005  -3.9531111e-008            
2.5391536e-005  -4.0030231e-008            
2.5591469e-005  -4.0856128e-008            
2.5791403e-005  -4.1568208e-008            
2.5991336e-005  -4.2682299e-008            
2.619127e-005  -4.3236414e-008            
2.6391203e-005  -4.3765125e-008            
2.6591136e-005  -4.4506983e-008            
2.679107e-005  -4.546684e-008            
2.6991003e-005  -4.6430054e-008            
2.7190936e-005  -4.7158457e-008            
2.739087e-005  -4.80492e-008            
2.7590803e-005  -4.8571393e-008            
2.7790736e-005  -4.944981e-008            
2.799067e-005  -5.0271876e-008            
2.8190603e-005  -5.1465844e-008            
2.8390536e-005  -5.2423668e-008            
2.859047e-005  -5.3156656e-008            
2.8790403e-005  -5.4081918e-008            
2.8990337e-005  -5.4878216e-008            
2.919027e-005  -5.610794e-008            
2.9390203e-005  -5.7200918e-008            
2.9590137e-005  -5.8193266e-008            
2.979007e-005  -5.8952285e-008            
2.9990003e-005  -5.9987406e-008            
3.0189937e-005  -6.1048521e-008            
3.038987e-005  -6.2332896e-008            
3.0589803e-005  -6.3829841e-008            
3.0789737e-005  -6.4842546e-008            
3.098967e-005  -6.593941e-008            
3.1189603e-005  -6.6788493e-008            
3.1389537e-005  -6.809281e-008            
3.158947e-005  -6.9417591e-008            
3.1789404e-005  -7.0957411e-008            
3.1989337e-005  -7.2305126e-008            
3.218927e-005  -7.3278848e-008            
3.2389204e-005  -7.4367664e-008            
3.2589137e-005  -7.5496223e-008            
3.278907e-005  -7.7210388e-008            
3.2989004e-005  -7.8663563e-008            
3.3188937e-005  -8.0223728e-008            
3.338887e-005  -8.1190172e-008            
3.3588804e-005  -8.2429852e-008            
3.3788737e-005  -8.3853005e-008            
3.398867e-005  -8.5433293e-008            
3.4188604e-005  -8.708247e-008            
3.4388537e-005  -8.8308119e-008            
3.458847e-005  -8.9922051e-008            
3.4788404e-005  -9.1206553e-008            
3.4988337e-005  -9.3006205e-008            
3.5188271e-005  -9.488968e-008            
3.5388204e-005  -9.6573344e-008            
3.5588137e-005  -9.8352297e-008            
3.5788071e-005  -9.9644328e-008            
3.5988004e-005  -1.0132386e-007            
3.6187937e-005  -1.0296408e-007            
3.6387871e-005  -1.0482345e-007            
3.6587804e-005  -1.0676237e-007            
3.6787737e-005  -1.0877815e-007            
3.6987671e-005  -1.1032541e-007            
3.7187604e-005  -1.1180671e-007            
3.7387537e-005  -1.1374022e-007            
3.7587471e-005  -1.1539392e-007            
3.7787404e-005  -1.1749164e-007            
3.7987338e-005  -1.1931706e-007            
3.8187271e-005  -1.2123607e-007            
3.8387204e-005  -1.2276993e-007            
3.8587138e-005  -1.2453802e-007            
3.8787071e-005  -1.264843e-007            
3.8987004e-005  -1.2852847e-007            
3.9186938e-005  -1.3035771e-007            
3.9386871e-005  -1.3221786e-007            
3.9586804e-005  -1.3419865e-007            
3.9786738e-005  -1.3619352e-007            
3.9986671e-005  -1.3862485e-007            
4.0186604e-005  -1.4073876e-007            
4.0386538e-005  -1.4297467e-007            
4.0586471e-005  -1.4508176e-007            
4.0786405e-005  -1.4710994e-007            
4.0986338e-005  -1.492225e-007            
4.1186271e-005  -1.5119144e-007            
4.1386205e-005  -1.5352612e-007            
4.1586138e-005  -1.5573489e-007            
4.1786071e-005  -1.5794432e-007            
4.1986005e-005  -1.5992585e-007            
4.2185938e-005  -1.6189312e-007            
4.2385871e-005  -1.6395485e-007            
4.2585805e-005  -1.6628131e-007            
4.2785738e-005  -1.686585e-007            
4.2985671e-005  -1.7088699e-007            
4.3185605e-005  -1.7291125e-007            
4.3385538e-005  -1.7518972e-007            
4.3585471e-005  -1.7755475e-007            
4.3785405e-005  -1.7994519e-007            
4.3985338e-005  -1.8248911e-007            
4.4185272e-005  -1.8507038e-007            
4.4385205e-005  -1.8751532e-007            
4.4585138e-005  -1.9011038e-007            
4.4785072e-005  -1.9265411e-007            
4.4985005e-005  -1.9525087e-007            
4.5184938e-005  -1.9824055e-007            
4.5384872e-005  -2.0122307e-007            
4.5584805e-005  -2.0378313e-007            
4.5784738e-005  -2.0633478e-007            
4.5984672e-005  -2.0890388e-007            
4.6184605e-005  -2.1176985e-007            
4.6384538e-005  -2.1465783e-007            
4.6584472e-005  -2.1717115e-007            
4.6784405e-005  -2.1975039e-007            
4.6984339e-005  -2.2230374e-007            
4.7184272e-005  -2.2482893e-007            
4.7384205e-005  -2.2737728e-007            
4.7584139e-005  -2.3009291e-007            
4.7784072e-005  -2.3289269e-007            
4.7984005e-005  -2.3556998e-007            
4.8183939e-005  -2.3811795e-007            
4.8383872e-005  -2.4066192e-007            
4.8583805e-005  -2.4340718e-007            
4.8783739e-005  -2.46385e-007            
4.8983672e-005  -2.4922654e-007            
4.9183605e-005  -2.5175467e-007            
4.9383539e-005  -2.5423253e-007            
4.9583472e-005  -2.5712614e-007            
4.9783406e-005  -2.6029785e-007            
4.9983339e-005  -2.6321093e-007            
5.0183272e-005  -2.6576884e-007            
5.0383206e-005  -2.6840379e-007            
5.0583139e-005  -2.7107195e-007            
5.0783072e-005  -2.7386428e-007            
5.0983006e-005  -2.7645854e-007            
5.1182939e-005  -2.7905174e-007            
5.1382872e-005  -2.818426e-007            
5.1582806e-005  -2.8420488e-007            
5.1782739e-005  -2.8652067e-007            
5.1982672e-005  -2.8869192e-007            
5.2182606e-005  -2.9138492e-007            
5.2382539e-005  -2.9413949e-007            
5.2582472e-005  -2.9658135e-007            
5.2782406e-005  -2.9863071e-007            
5.2982339e-005  -3.009246e-007            
5.3182273e-005  -3.034017e-007            
5.3382206e-005  -3.0608325e-007            
5.3582139e-005  -3.0862015e-007            
5.3782073e-005  -3.1081413e-007            
5.3982006e-005  -3.1327305e-007            
5.4181939e-005  -3.1560698e-007            
5.4381873e-005  -3.1829077e-007            
5.4581806e-005  -3.2073276e-007            
5.4781739e-005  -3.2333396e-007            
5.4981673e-005  -3.2552211e-007            
5.5181606e-005  -3.2789681e-007            
5.5381539e-005  -3.2990243e-007            
5.5581473e-005  -3.3229305e-007            
5.5781406e-005  -3.3455858e-007            
5.598134e-005  -3.3685197e-007            
5.6181273e-005  -3.3882279e-007            
5.6381206e-005  -3.4067798e-007            
5.658114e-005  -3.4259259e-007            
5.6781073e-005  -3.4469403e-007            
5.6981006e-005  -3.4665368e-007            
5.718094e-005  -3.4839502e-007            
5.7380873e-005  -3.5010739e-007            
5.7580806e-005  -3.5161842e-007            
5.778074e-005  -3.5353012e-007            
5.7980673e-005  -3.5520965e-007            
5.8180606e-005  -3.5718458e-007            
5.838054e-005  -3.5889325e-007            
5.8580473e-005  -3.6055734e-007            
5.8780407e-005  -3.6194609e-007            
5.898034e-005  -3.6350105e-007            
5.9180273e-005  -3.6516661e-007            
5.9380207e-005  -3.6700259e-007            
5.958014e-005  -3.6822363e-007            
5.9780073e-005  -3.694516e-007            
5.9980007e-005  -3.7055585e-007            
6.017994e-005  -3.7191292e-007            
6.0379873e-005  -3.7319966e-007            
6.0579807e-005  -3.7445797e-007            
6.077974e-005  -3.7569911e-007            
6.0979673e-005  -3.7677965e-007            
6.1179607e-005  -3.7778911e-007            
6.137954e-005  -3.7870294e-007            
6.1579473e-005  -3.7979381e-007            
6.1779407e-005  -3.8060389e-007            
6.197934e-005  -3.8168056e-007            
6.2179274e-005  -3.8225343e-007            
6.2379207e-005  -3.8309242e-007            
6.257914e-005  -3.8370384e-007            
6.2779074e-005  -3.8466209e-007            
6.2979007e-005  -3.8522718e-007            
6.317894e-005  -3.8602877e-007            
6.3378874e-005  -3.8640592e-007            
6.3578807e-005  -3.8711716e-007            
6.377874e-005  -3.8742888e-007            
6.3978674e-005  -3.8793825e-007            
6.4178607e-005  -3.8834859e-007            
6.437854e-005  -3.8885585e-007            
6.4578474e-005  -3.8920109e-007            
6.4778407e-005  -3.8939236e-007            
6.4978341e-005  -3.8956918e-007            
6.5178274e-005  -3.8993931e-007            
6.5378207e-005  -3.9005553e-007            
6.5578141e-005  -3.9027026e-007            
6.5778074e-005  -3.9034935e-007            
6.5978007e-005  -3.9038662e-007            
6.6177941e-005  -3.9042209e-007            
6.6377874e-005  -3.9030284e-007            
6.6577807e-005  -3.9041366e-007            
6.6777741e-005  -3.9028092e-007            
6.6977674e-005  -3.9028068e-007            
6.7177607e-005  -3.9011216e-007            
6.7377541e-005  -3.8994474e-007            
6.7577474e-005  -3.8959118e-007            
6.7777407e-005  -3.8960446e-007            
6.7977341e-005  -3.8949451e-007            
6.8177274e-005  -3.8945539e-007            
6.8377208e-005  -3.8913678e-007            
6.8577141e-005  -3.8868273e-007            
6.8777074e-005  -3.8831667e-007            
6.8977008e-005  -3.8800413e-007            
6.9176941e-005  -3.876109e-007            
6.9376874e-005  -3.8719189e-007            
6.9576808e-005  -3.8668511e-007            
6.9776741e-005  -3.8614269e-007            
6.9976674e-005  -3.8560185e-007            
7.0176608e-005  -3.8505956e-007            
7.0376541e-005  -3.8471335e-007            
7.0576474e-005  -3.841564e-007            
7.0776408e-005  -3.8364991e-007            
7.0976341e-005  -3.8314236e-007            
7.1176275e-005  -3.824364e-007            
7.1376208e-005  -3.8177386e-007            
7.1576141e-005  -3.8130804e-007            
7.1776075e-005  -3.8071051e-007            
7.1976008e-005  -3.8022193e-007            
7.2175941e-005  -3.7934955e-007            
7.2375875e-005  -3.788369e-007            
7.2575808e-005  -3.7836983e-007            
7.2775741e-005  -3.7800349e-007            
7.2975675e-005  -3.7745136e-007            
7.3175608e-005  -3.7680755e-007            
7.3375541e-005  -3.7618994e-007            
7.3575475e-005  -3.7560118e-007            
7.3775408e-005  -3.7501219e-007            
7.3975342e-005  -3.7423944e-007            
7.4175275e-005  -3.7371036e-007            
7.4375208e-005  -3.7316991e-007            
7.4575142e-005  -3.7260047e-007            
7.4775075e-005  -3.7178189e-007            
7.4975008e-005  -3.7112869e-007            
7.5174942e-005  -3.705115e-007            
7.5374875e-005  -3.6998367e-007            
7.5574808e-005  -3.693229e-007            
7.5774742e-005  -3.6855922e-007            
7.5974675e-005  -3.6784716e-007            
7.6174608e-005  -3.6751287e-007            
7.6374542e-005  -3.6703396e-007            
7.6574475e-005  -3.6646599e-007            
7.6774408e-005  -3.6592674e-007            
7.6974342e-005  -3.6571268e-007            
7.7174275e-005  -3.6555648e-007            
7.7374209e-005  -3.6511901e-007            
7.7574142e-005  -3.6470271e-007            
7.7774075e-005  -3.6452982e-007            
7.7974009e-005  -3.6417087e-007            
7.8173942e-005  -3.6397698e-007            
7.8373875e-005  -3.6366067e-007            
7.8573809e-005  -3.6348461e-007            
7.8773742e-005  -3.6355724e-007            
7.8973675e-005  -3.632565e-007            
7.9173609e-005  -3.6295755e-007            
7.9373542e-005  -3.6284038e-007            
7.9573475e-005  -3.627708e-007            
7.9773409e-005  -3.6284813e-007            
7.9973342e-005  -3.6292531e-007            
8.0173276e-005  -3.6295989e-007            
8.0373209e-005  -3.6288148e-007            
8.0573142e-005  -3.6313352e-007            
8.0773076e-005  -3.6322938e-007            
8.0973009e-005  -3.6370023e-007            
8.1172942e-005  -3.6382596e-007            
8.1372876e-005  -3.6393557e-007            
8.1572809e-005  -3.6409965e-007            
8.1772742e-005  -3.6446306e-007            
8.1972676e-005  -3.6484208e-007            
8.2172609e-005  -3.6530731e-007            
8.2372542e-005  -3.6560709e-007            
8.2572476e-005  -3.6589808e-007            
8.2772409e-005  -3.6636364e-007            
8.2972343e-005  -3.6704817e-007            
8.3172276e-005  -3.677112e-007            
8.3372209e-005  -3.6835446e-007            
8.3572143e-005  -3.6931916e-007            
8.3772076e-005  -3.7014418e-007            
8.3972009e-005  -3.7099154e-007            
8.4171943e-005  -3.7183152e-007            
8.4371876e-005  -3.7279789e-007            
8.4571809e-005  -3.7405689e-007            
8.4771743e-005  -3.7494352e-007            
8.4971676e-005  -3.7585808e-007            
8.5171609e-005  -3.7682148e-007            
8.5371543e-005  -3.7801649e-007            
8.5571476e-005  -3.7926557e-007            
8.5771409e-005  -3.8034645e-007            
8.5971343e-005  -3.8141386e-007            
8.6171276e-005  -3.8266838e-007            
8.637121e-005  -3.8373417e-007            
8.6571143e-005  -3.8490857e-007            
8.6771076e-005  -3.8616567e-007            
8.697101e-005  -3.8761325e-007            
8.7170943e-005  -3.8915809e-007            
8.7370876e-005  -3.903989e-007            
8.757081e-005  -3.9150085e-007            
8.7770743e-005  -3.9292549e-007            
8.7970676e-005  -3.9429653e-007            
8.817061e-005  -3.9582667e-007            
8.8370543e-005  -3.9696866e-007            
8.8570476e-005  -3.9821624e-007            
8.877041e-005  -3.9950854e-007            
8.8970343e-005  -4.0079645e-007            
8.9170277e-005  -4.0213772e-007            
8.937021e-005  -4.0339472e-007            
8.9570143e-005  -4.0469016e-007            
8.9770077e-005  -4.0586708e-007            
8.997001e-005  -4.0697057e-007            
9.0169943e-005  -4.0807427e-007            
9.0369877e-005  -4.0927563e-007            
9.056981e-005  -4.10486e-007            
9.0769743e-005  -4.1174036e-007            
