Surface Profile             
x       y           
[m]     [m]         
0  -6.3692194e-009            
1.9993336e-007  -8.8463133e-009            
3.9986671e-007  -1.0716901e-008            
5.9980007e-007  -1.2345108e-008            
7.9973342e-007  -1.3696558e-008            
9.9966678e-007  -1.4940193e-008            
1.1996001e-006  -1.6146179e-008            
1.3995335e-006  -1.7543495e-008            
1.5994668e-006  -1.9037241e-008            
1.7994002e-006  -2.0675764e-008            
1.9993336e-006  -2.217588e-008            
2.1992669e-006  -2.3860085e-008            
2.3992003e-006  -2.5443891e-008            
2.5991336e-006  -2.7187012e-008            
2.799067e-006  -2.8813446e-008            
2.9990003e-006  -3.0579131e-008            
3.1989337e-006  -3.2238317e-008            
3.398867e-006  -3.3790033e-008            
3.5988004e-006  -3.5412405e-008            
3.7987338e-006  -3.6839827e-008            
3.9986671e-006  -3.8206161e-008            
4.1986005e-006  -3.9694262e-008            
4.3985338e-006  -4.1078282e-008            
4.5984672e-006  -4.230448e-008            
4.7984005e-006  -4.3233102e-008            
4.9983339e-006  -4.422245e-008            
5.1982672e-006  -4.5177449e-008            
5.3982006e-006  -4.6154975e-008            
5.598134e-006  -4.7042846e-008            
5.7980673e-006  -4.7821018e-008            
5.9980007e-006  -4.8365978e-008            
6.197934e-006  -4.9012929e-008            
6.3978674e-006  -4.9300299e-008            
6.5978007e-006  -4.9547651e-008            
6.7977341e-006  -4.9652644e-008            
6.9976674e-006  -4.9751836e-008            
7.1976008e-006  -4.9739109e-008            
7.3975342e-006  -4.9370824e-008            
7.5974675e-006  -4.887608e-008            
7.7974009e-006  -4.8381413e-008            
7.9973342e-006  -4.7945056e-008            
8.1972676e-006  -4.7201683e-008            
8.3972009e-006  -4.6520437e-008            
8.5971343e-006  -4.5622196e-008            
8.7970676e-006  -4.4991546e-008            
8.997001e-006  -4.422498e-008            
9.1969344e-006  -4.3132572e-008            
9.3968677e-006  -4.186836e-008            
9.5968011e-006  -4.0828247e-008            
9.7967344e-006  -3.9891988e-008            
9.9966678e-006  -3.8844615e-008            
1.0196601e-005  -3.751939e-008            
1.0396534e-005  -3.6181417e-008            
1.0596468e-005  -3.4836561e-008            
1.0796401e-005  -3.3316442e-008            
1.0996335e-005  -3.1604532e-008            
1.1196268e-005  -2.9967973e-008            
1.1396201e-005  -2.8507405e-008            
1.1596135e-005  -2.6965232e-008            
1.1796068e-005  -2.5128935e-008            
1.1996001e-005  -2.3258142e-008            
1.2195935e-005  -2.1263107e-008            
1.2395868e-005  -1.9511751e-008            
1.2595801e-005  -1.7530506e-008            
1.2795735e-005  -1.5427546e-008            
1.2995668e-005  -1.3374046e-008            
1.3195601e-005  -1.1392568e-008            
1.3395535e-005  -9.2653933e-009            
1.3595468e-005  -7.0247373e-009            
1.3795402e-005  -4.7138617e-009            
1.3995335e-005  -2.4861877e-009            
1.4195268e-005  -2.440901e-010            
1.4395202e-005  1.9447033e-009            
1.4595135e-005  4.1063769e-009            
1.4795068e-005  6.3041998e-009            
1.4995002e-005  8.4114709e-009            
1.5194935e-005  1.0707169e-008            
1.5394868e-005  1.309859e-008            
1.5594802e-005  1.5429659e-008            
1.5794735e-005  1.7560397e-008            
1.5994668e-005  1.9744482e-008            
1.6194602e-005  2.1984369e-008            
1.6394535e-005  2.4572967e-008            
1.6594469e-005  2.6922092e-008            
1.6794402e-005  2.9146105e-008            
1.6994335e-005  3.1420213e-008            
1.7194269e-005  3.3819585e-008            
1.7394202e-005  3.6235891e-008            
1.7594135e-005  3.8636958e-008            
1.7794069e-005  4.1001469e-008            
1.7994002e-005  4.3756798e-008            
1.8193935e-005  4.6331368e-008            
1.8393869e-005  4.892037e-008            
1.8593802e-005  5.1638014e-008            
1.8793735e-005  5.4209743e-008            
1.8993669e-005  5.667975e-008            
1.9193602e-005  5.9195445e-008            
1.9393535e-005  6.1820309e-008            
1.9593469e-005  6.4279339e-008            
1.9793402e-005  6.6689107e-008            
1.9993336e-005  6.9259708e-008            
2.0193269e-005  7.189898e-008            
2.0393202e-005  7.4372359e-008            
2.0593136e-005  7.6757874e-008            
2.0793069e-005  7.9246048e-008            
2.0993002e-005  8.1846973e-008            
2.1192936e-005  8.4764738e-008            
2.1392869e-005  8.7319879e-008            
2.1592802e-005  8.9601768e-008            
2.1792736e-005  9.1923383e-008            
2.1992669e-005  9.4576424e-008            
2.2192602e-005  9.737804e-008            
2.2392536e-005  1.0010918e-007            
2.2592469e-005  1.0276271e-007            
2.2792403e-005  1.0532483e-007            
2.2992336e-005  1.078776e-007            
2.3192269e-005  1.1054823e-007            
2.3392203e-005  1.1300429e-007            
2.3592136e-005  1.1552631e-007            
2.3792069e-005  1.1813378e-007            
2.3992003e-005  1.204961e-007            
2.4191936e-005  1.2273762e-007            
2.4391869e-005  1.250914e-007            
2.4591803e-005  1.274908e-007            
2.4791736e-005  1.3011355e-007            
2.4991669e-005  1.3260295e-007            
2.5191603e-005  1.3474201e-007            
2.5391536e-005  1.3706904e-007            
2.5591469e-005  1.3936046e-007            
2.5791403e-005  1.4191693e-007            
2.5991336e-005  1.4447674e-007            
2.619127e-005  1.4685011e-007            
2.6391203e-005  1.4919451e-007            
2.6591136e-005  1.514174e-007            
2.679107e-005  1.5373646e-007            
2.6991003e-005  1.5604281e-007            
2.7190936e-005  1.5851704e-007            
2.739087e-005  1.6091186e-007            
2.7590803e-005  1.6324248e-007            
2.7790736e-005  1.6552625e-007            
2.799067e-005  1.6814618e-007            
2.8190603e-005  1.705143e-007            
2.8390536e-005  1.7288348e-007            
2.859047e-005  1.7518725e-007            
2.8790403e-005  1.7705582e-007            
2.8990337e-005  1.791048e-007            
2.919027e-005  1.813463e-007            
2.9390203e-005  1.8348198e-007            
2.9590137e-005  1.8557514e-007            
2.979007e-005  1.8760221e-007            
2.9990003e-005  1.8963188e-007            
3.0189937e-005  1.9166359e-007            
3.038987e-005  1.9373531e-007            
3.0589803e-005  1.9551693e-007            
3.0789737e-005  1.9744978e-007            
3.098967e-005  1.9953509e-007            
3.1189603e-005  2.0146822e-007            
3.1389537e-005  2.0316007e-007            
3.158947e-005  2.0499099e-007            
3.1789404e-005  2.068964e-007            
3.1989337e-005  2.0897147e-007            
3.218927e-005  2.1108939e-007            
3.2389204e-005  2.1273555e-007            
3.2589137e-005  2.1453722e-007            
3.278907e-005  2.1628877e-007            
3.2989004e-005  2.1816085e-007            
3.3188937e-005  2.2017221e-007            
3.338887e-005  2.2210664e-007            
3.3588804e-005  2.2395138e-007            
3.3788737e-005  2.2573946e-007            
3.398867e-005  2.2753005e-007            
3.4188604e-005  2.2939533e-007            
3.4388537e-005  2.3121246e-007            
3.458847e-005  2.3290381e-007            
3.4788404e-005  2.3487365e-007            
3.4988337e-005  2.3655641e-007            
3.5188271e-005  2.381033e-007            
3.5388204e-005  2.3989993e-007            
3.5588137e-005  2.4166811e-007            
3.5788071e-005  2.4360266e-007            
3.5988004e-005  2.4529117e-007            
3.6187937e-005  2.4693515e-007            
3.6387871e-005  2.4867248e-007            
3.6587804e-005  2.5073347e-007            
3.6787737e-005  2.5265555e-007            
3.6987671e-005  2.5470624e-007            
3.7187604e-005  2.5655084e-007            
3.7387537e-005  2.5839836e-007            
3.7587471e-005  2.6024925e-007            
3.7787404e-005  2.6197144e-007            
3.7987338e-005  2.6374599e-007            
3.8187271e-005  2.6587973e-007            
3.8387204e-005  2.6794783e-007            
3.8587138e-005  2.6957343e-007            
3.8787071e-005  2.7096021e-007            
3.8987004e-005  2.7260085e-007            
3.9186938e-005  2.7434263e-007            
3.9386871e-005  2.7627999e-007            
3.9586804e-005  2.779294e-007            
3.9786738e-005  2.7958937e-007            
3.9986671e-005  2.8146439e-007            
4.0186604e-005  2.8333782e-007            
4.0386538e-005  2.8504798e-007            
4.0586471e-005  2.8696194e-007            
4.0786405e-005  2.8869183e-007            
4.0986338e-005  2.9044647e-007            
4.1186271e-005  2.9228233e-007            
4.1386205e-005  2.9372237e-007            
4.1586138e-005  2.9552564e-007            
4.1786071e-005  2.9732386e-007            
4.1986005e-005  2.9893874e-007            
4.2185938e-005  3.0026697e-007            
4.2385871e-005  3.015055e-007            
4.2585805e-005  3.0320484e-007            
4.2785738e-005  3.049271e-007            
4.2985671e-005  3.0659626e-007            
4.3185605e-005  3.0801102e-007            
4.3385538e-005  3.0932065e-007            
4.3585471e-005  3.1071145e-007            
4.3785405e-005  3.1215993e-007            
4.3985338e-005  3.1361287e-007            
4.4185272e-005  3.1510166e-007            
4.4385205e-005  3.1637074e-007            
4.4585138e-005  3.1764192e-007            
4.4785072e-005  3.1870426e-007            
4.4985005e-005  3.1990666e-007            
4.5184938e-005  3.2122161e-007            
4.5384872e-005  3.2255713e-007            
4.5584805e-005  3.2371925e-007            
4.5784738e-005  3.2478686e-007            
4.5984672e-005  3.2592132e-007            
4.6184605e-005  3.2693281e-007            
4.6384538e-005  3.2799314e-007            
4.6584472e-005  3.2921008e-007            
4.6784405e-005  3.3022948e-007            
4.6984339e-005  3.3122825e-007            
4.7184272e-005  3.3209189e-007            
4.7384205e-005  3.3323621e-007            
4.7584139e-005  3.3435929e-007            
4.7784072e-005  3.3562664e-007            
4.7984005e-005  3.3654169e-007            
4.8183939e-005  3.3750578e-007            
4.8383872e-005  3.3859709e-007            
4.8583805e-005  3.3959383e-007            
4.8783739e-005  3.4055009e-007            
4.8983672e-005  3.4169861e-007            
4.9183605e-005  3.4259134e-007            
4.9383539e-005  3.4351161e-007            
4.9583472e-005  3.4442323e-007            
4.9783406e-005  3.4531705e-007            
4.9983339e-005  3.4633473e-007            
5.0183272e-005  3.4731046e-007            
5.0383206e-005  3.4806843e-007            
5.0583139e-005  3.4891381e-007            
5.0783072e-005  3.496558e-007            
5.0983006e-005  3.5052503e-007            
5.1182939e-005  3.5129019e-007            
5.1382872e-005  3.5195699e-007            
5.1582806e-005  3.5261e-007            
5.1782739e-005  3.5331846e-007            
5.1982672e-005  3.5412818e-007            
5.2182606e-005  3.5490306e-007            
5.2382539e-005  3.5561859e-007            
5.2582472e-005  3.5628119e-007            
5.2782406e-005  3.5686043e-007            
5.2982339e-005  3.5731016e-007            
5.3182273e-005  3.5782494e-007            
5.3382206e-005  3.5826027e-007            
5.3582139e-005  3.5881095e-007            
5.3782073e-005  3.5947965e-007            
5.3982006e-005  3.5993254e-007            
5.4181939e-005  3.6025565e-007            
5.4381873e-005  3.6053936e-007            
5.4581806e-005  3.6092224e-007            
5.4781739e-005  3.614105e-007            
5.4981673e-005  3.6180806e-007            
5.5181606e-005  3.6202363e-007            
5.5381539e-005  3.6228824e-007            
5.5581473e-005  3.6255886e-007            
5.5781406e-005  3.6294985e-007            
5.598134e-005  3.6311353e-007            
5.6181273e-005  3.6338402e-007            
5.6381206e-005  3.6370979e-007            
5.658114e-005  3.6389744e-007            
5.6781073e-005  3.6410682e-007            
5.6981006e-005  3.6387707e-007            
5.718094e-005  3.639908e-007            
5.7380873e-005  3.6425029e-007            
5.7580806e-005  3.6427102e-007            
5.778074e-005  3.6438336e-007            
5.7980673e-005  3.6438473e-007            
5.8180606e-005  3.6448526e-007            
5.838054e-005  3.646886e-007            
5.8580473e-005  3.6492012e-007            
5.8780407e-005  3.6501681e-007            
5.898034e-005  3.6525189e-007            
5.9180273e-005  3.6557009e-007            
5.9380207e-005  3.6583407e-007            
5.958014e-005  3.65941e-007            
5.9780073e-005  3.6619883e-007            
5.9980007e-005  3.6652773e-007            
6.017994e-005  3.6677704e-007            
6.0379873e-005  3.6675282e-007            
6.0579807e-005  3.6679837e-007            
6.077974e-005  3.6694832e-007            
6.0979673e-005  3.6739272e-007            
6.1179607e-005  3.6756882e-007            
6.137954e-005  3.6752731e-007            
6.1579473e-005  3.6760398e-007            
6.1779407e-005  3.677214e-007            
6.197934e-005  3.6787461e-007            
6.2179274e-005  3.6810548e-007            
6.2379207e-005  3.68147e-007            
6.257914e-005  3.6836951e-007            
6.2779074e-005  3.6853527e-007            
6.2979007e-005  3.6846732e-007            
6.317894e-005  3.6860463e-007            
6.3378874e-005  3.6871668e-007            
6.3578807e-005  3.6913623e-007            
6.377874e-005  3.6929771e-007            
6.3978674e-005  3.6927713e-007            
6.4178607e-005  3.6929125e-007            
6.437854e-005  3.6935565e-007            
6.4578474e-005  3.6942309e-007            
6.4778407e-005  3.6958681e-007            
6.4978341e-005  3.6941165e-007            
6.5178274e-005  3.693946e-007            
6.5378207e-005  3.6949288e-007            
6.5578141e-005  3.6965949e-007            
6.5778074e-005  3.6988791e-007            
6.5978007e-005  3.6990209e-007            
6.6177941e-005  3.6976082e-007            
6.6377874e-005  3.6971267e-007            
6.6577807e-005  3.6977127e-007            
6.6777741e-005  3.6988998e-007            
6.6977674e-005  3.6996038e-007            
6.7177607e-005  3.7002031e-007            
6.7377541e-005  3.7004878e-007            
6.7577474e-005  3.6987351e-007            
6.7777407e-005  3.696929e-007            
6.7977341e-005  3.6954626e-007            
6.8177274e-005  3.6956388e-007            
6.8377208e-005  3.695666e-007            
6.8577141e-005  3.6932347e-007            
6.8777074e-005  3.6912507e-007            
6.8977008e-005  3.6905386e-007            
6.9176941e-005  3.6895376e-007            
6.9376874e-005  3.6894513e-007            
6.9576808e-005  3.6874351e-007            
6.9776741e-005  3.6854924e-007            
6.9976674e-005  3.6858654e-007            
7.0176608e-005  3.6840614e-007            
7.0376541e-005  3.6836793e-007            
7.0576474e-005  3.6833471e-007            
7.0776408e-005  3.6839147e-007            
7.0976341e-005  3.6828455e-007            
7.1176275e-005  3.6818133e-007            
7.1376208e-005  3.6796407e-007            
7.1576141e-005  3.67769e-007            
7.1776075e-005  3.6776999e-007            
7.1976008e-005  3.6754879e-007            
7.2175941e-005  3.671349e-007            
7.2375875e-005  3.6672716e-007            
7.2575808e-005  3.6668851e-007            
7.2775741e-005  3.6651169e-007            
7.2975675e-005  3.6633527e-007            
7.3175608e-005  3.6604187e-007            
7.3375541e-005  3.6564708e-007            
7.3575475e-005  3.6544942e-007            
7.3775408e-005  3.651515e-007            
7.3975342e-005  3.6493034e-007            
7.4175275e-005  3.6464195e-007            
7.4375208e-005  3.6428893e-007            
7.4575142e-005  3.6403063e-007            
7.4775075e-005  3.6367392e-007            
7.4975008e-005  3.6324464e-007            
7.5174942e-005  3.6283785e-007            
7.5374875e-005  3.6259533e-007            
7.5574808e-005  3.6213861e-007            
7.5774742e-005  3.6179302e-007            
7.5974675e-005  3.6145019e-007            
7.6174608e-005  3.6134026e-007            
7.6374542e-005  3.6100976e-007            
7.6574475e-005  3.6070307e-007            
7.6774408e-005  3.6042382e-007            
7.6974342e-005  3.6036579e-007            
7.7174275e-005  3.6010808e-007            
7.7374209e-005  3.598884e-007            
7.7574142e-005  3.5941998e-007            
7.7774075e-005  3.592721e-007            
7.7974009e-005  3.5902377e-007            
7.8173942e-005  3.5869401e-007            
7.8373875e-005  3.5840327e-007            
7.8573809e-005  3.5824844e-007            
7.8773742e-005  3.5826296e-007            
7.8973675e-005  3.5811471e-007            
7.9173609e-005  3.5786867e-007            
7.9373542e-005  3.5790595e-007            
7.9573475e-005  3.5801104e-007            
7.9773409e-005  3.5810213e-007            
7.9973342e-005  3.5797365e-007            
8.0173276e-005  3.5772147e-007            
8.0373209e-005  3.57888e-007            
8.0573142e-005  3.5789421e-007            
8.0773076e-005  3.5798002e-007            
8.0973009e-005  3.5800907e-007            
8.1172942e-005  3.5820531e-007            
8.1372876e-005  3.5845835e-007            
8.1572809e-005  3.586153e-007            
8.1772742e-005  3.5863293e-007            
8.1972676e-005  3.5872105e-007            
8.2172609e-005  3.589372e-007            
8.2372542e-005  3.590705e-007            
8.2572476e-005  3.5908678e-007            
8.2772409e-005  3.5918297e-007            
8.2972343e-005  3.5950257e-007            
8.3172276e-005  3.5980649e-007            
8.3372209e-005  3.5978146e-007            
8.3572143e-005  3.5988265e-007            
8.3772076e-005  3.6026263e-007            
8.3972009e-005  3.6061821e-007            
8.4171943e-005  3.6090579e-007            
8.4371876e-005  3.6107731e-007            
8.4571809e-005  3.6130606e-007            
8.4771743e-005  3.6194619e-007            
8.4971676e-005  3.6255199e-007            
8.5171609e-005  3.6312099e-007            
8.5371543e-005  3.6348535e-007            
8.5571476e-005  3.6394524e-007            
8.5771409e-005  3.646872e-007            
8.5971343e-005  3.6527271e-007            
8.6171276e-005  3.6610197e-007            
8.637121e-005  3.6702465e-007            
8.6571143e-005  3.6799547e-007            
8.6771076e-005  3.689429e-007            
8.697101e-005  3.697635e-007            
8.7170943e-005  3.7058234e-007            
8.7370876e-005  3.7163714e-007            
8.757081e-005  3.7265863e-007            
8.7770743e-005  3.736105e-007            
8.7970676e-005  3.7446374e-007            
8.817061e-005  3.7537071e-007            
8.8370543e-005  3.7650052e-007            
8.8570476e-005  3.7777123e-007            
8.877041e-005  3.789916e-007            
8.8970343e-005  3.8008292e-007            
8.9170277e-005  3.8104284e-007            
8.937021e-005  3.8223637e-007            
8.9570143e-005  3.8334609e-007            
8.9770077e-005  3.8441887e-007            
8.997001e-005  3.854188e-007            
9.0169943e-005  3.8672261e-007            
9.0369877e-005  3.878474e-007            
9.056981e-005  3.8908692e-007            
9.0769743e-005  3.9014734e-007            
9.0969677e-005  3.9158391e-007            
9.116961e-005  3.9314862e-007            
9.1369543e-005  3.9439715e-007            
9.1569477e-005  3.9570635e-007            
9.176941e-005  3.9690637e-007            
9.1969344e-005  3.9861827e-007            
9.2169277e-005  4.0035813e-007            
9.236921e-005  4.0180294e-007            
9.2569144e-005  4.0320359e-007            
