Surface Profile             
x       y           
[m]     [m]         
0  -1.0121742e-010            
1.9993336e-007  -4.2114794e-010            
3.9986671e-007  -8.5889118e-010            
5.9980007e-007  -1.2485019e-009            
7.9973342e-007  -1.4232579e-009            
9.9966678e-007  -1.76808e-009            
1.1996001e-006  -2.1094538e-009            
1.3995335e-006  -2.410903e-009            
1.5994668e-006  -2.5773379e-009            
1.7994002e-006  -2.7616753e-009            
1.9993336e-006  -3.1013385e-009            
2.1992669e-006  -3.2037366e-009            
2.3992003e-006  -3.5636921e-009            
2.5991336e-006  -3.8794574e-009            
2.799067e-006  -4.1100333e-009            
2.9990003e-006  -4.6840767e-009            
3.1989337e-006  -5.1155307e-009            
3.398867e-006  -5.4644985e-009            
3.5988004e-006  -5.7591384e-009            
3.7987338e-006  -6.0525819e-009            
3.9986671e-006  -6.4307162e-009            
4.1986005e-006  -6.7030704e-009            
4.3985338e-006  -6.8669147e-009            
4.5984672e-006  -6.9880015e-009            
4.7984005e-006  -7.200232e-009            
4.9983339e-006  -7.3441038e-009            
5.1982672e-006  -7.3960658e-009            
5.3982006e-006  -7.529562e-009            
5.598134e-006  -7.4631837e-009            
5.7980673e-006  -7.7322334e-009            
5.9980007e-006  -7.8524447e-009            
6.197934e-006  -7.7639212e-009            
6.3978674e-006  -7.6713339e-009            
6.5978007e-006  -7.6088181e-009            
6.7977341e-006  -7.6188454e-009            
6.9976674e-006  -7.4645311e-009            
7.1976008e-006  -7.3305261e-009            
7.3975342e-006  -7.2070178e-009            
7.5974675e-006  -7.050849e-009            
7.7974009e-006  -6.7970339e-009            
7.9973342e-006  -6.4127962e-009            
8.1972676e-006  -6.2474878e-009            
8.3972009e-006  -6.1267334e-009            
8.5971343e-006  -5.7886801e-009            
8.7970676e-006  -5.4982198e-009            
8.997001e-006  -4.8614057e-009            
9.1969344e-006  -4.7627079e-009            
9.3968677e-006  -4.6280185e-009            
9.5968011e-006  -4.1414553e-009            
9.7967344e-006  -3.65377e-009            
9.9966678e-006  -3.1428199e-009            
1.0196601e-005  -2.7279527e-009            
1.0396534e-005  -2.384231e-009            
1.0596468e-005  -1.8731121e-009            
1.0796401e-005  -1.5098413e-009            
1.0996335e-005  -1.1824535e-009            
1.1196268e-005  -5.2713099e-010            
1.1396201e-005  3.2899963e-010            
1.1596135e-005  9.5043036e-010            
1.1796068e-005  1.1061743e-009            
1.1996001e-005  1.2889751e-009            
1.2195935e-005  1.9619305e-009            
1.2395868e-005  2.7065634e-009            
1.2595801e-005  3.2022805e-009            
1.2795735e-005  3.5832832e-009            
1.2995668e-005  3.981134e-009            
1.3195601e-005  4.4530426e-009            
1.3395535e-005  4.9820862e-009            
1.3595468e-005  5.5143453e-009            
1.3795402e-005  5.890069e-009            
1.3995335e-005  6.3477977e-009            
1.4195268e-005  6.7807293e-009            
1.4395202e-005  7.1073994e-009            
1.4595135e-005  7.3998213e-009            
1.4795068e-005  7.9480003e-009            
1.4995002e-005  8.5921463e-009            
1.5194935e-005  9.0731848e-009            
1.5394868e-005  9.1392298e-009            
1.5594802e-005  9.2562968e-009            
1.5794735e-005  9.6730739e-009            
1.5994668e-005  1.0334932e-008            
1.6194602e-005  1.0745641e-008            
1.6394535e-005  1.101377e-008            
1.6594469e-005  1.1265591e-008            
1.6794402e-005  1.1514791e-008            
1.6994335e-005  1.1836489e-008            
1.7194269e-005  1.2172375e-008            
1.7394202e-005  1.2591541e-008            
1.7594135e-005  1.280702e-008            
1.7794069e-005  1.2845362e-008            
1.7994002e-005  1.3187198e-008            
1.8193935e-005  1.3550615e-008            
1.8393869e-005  1.3970092e-008            
1.8593802e-005  1.441929e-008            
1.8793735e-005  1.466705e-008            
1.8993669e-005  1.5042814e-008            
1.9193602e-005  1.5572583e-008            
1.9393535e-005  1.6127685e-008            
1.9593469e-005  1.6850981e-008            
1.9793402e-005  1.7392869e-008            
1.9993336e-005  1.7852698e-008            
2.0193269e-005  1.8131252e-008            
2.0393202e-005  1.8504253e-008            
2.0593136e-005  1.9066218e-008            
2.0793069e-005  1.9629369e-008            
2.0993002e-005  2.009545e-008            
2.1192936e-005  2.044894e-008            
2.1392869e-005  2.0824032e-008            
2.1592802e-005  2.1299722e-008            
2.1792736e-005  2.1858755e-008            
2.1992669e-005  2.2413534e-008            
2.2192602e-005  2.2840198e-008            
2.2392536e-005  2.3200751e-008            
2.2592469e-005  2.3486849e-008            
2.2792403e-005  2.3767262e-008            
2.2992336e-005  2.4267845e-008            
2.3192269e-005  2.4937795e-008            
2.3392203e-005  2.5466818e-008            
2.3592136e-005  2.5525751e-008            
2.3792069e-005  2.5928031e-008            
2.3992003e-005  2.6405168e-008            
2.4191936e-005  2.7252019e-008            
2.4391869e-005  2.769558e-008            
2.4591803e-005  2.7866564e-008            
2.4791736e-005  2.8332261e-008            
2.4991669e-005  2.8771459e-008            
2.5191603e-005  2.9149451e-008            
2.5391536e-005  2.9373318e-008            
2.5591469e-005  2.9823604e-008            
2.5791403e-005  3.0391499e-008            
2.5991336e-005  3.069906e-008            
2.619127e-005  3.0943511e-008            
2.6391203e-005  3.139083e-008            
2.6591136e-005  3.1880727e-008            
2.679107e-005  3.2439906e-008            
2.6991003e-005  3.2865812e-008            
2.7190936e-005  3.3358578e-008            
2.739087e-005  3.3751487e-008            
2.7590803e-005  3.4018628e-008            
2.7790736e-005  3.4265462e-008            
2.799067e-005  3.4860884e-008            
2.8190603e-005  3.5317742e-008            
2.8390536e-005  3.5695657e-008            
2.859047e-005  3.5971368e-008            
2.8790403e-005  3.6461529e-008            
2.8990337e-005  3.7079474e-008            
2.919027e-005  3.740751e-008            
2.9390203e-005  3.7591996e-008            
2.9590137e-005  3.8014325e-008            
2.979007e-005  3.8413162e-008            
2.9990003e-005  3.8816664e-008            
3.0189937e-005  3.9050475e-008            
3.038987e-005  3.9428052e-008            
3.0589803e-005  3.9925304e-008            
3.0789737e-005  4.0292374e-008            
3.098967e-005  4.054602e-008            
3.1189603e-005  4.0793024e-008            
3.1389537e-005  4.1115893e-008            
3.158947e-005  4.1432421e-008            
3.1789404e-005  4.1612752e-008            
3.1989337e-005  4.1903189e-008            
3.218927e-005  4.2119632e-008            
3.2389204e-005  4.2130991e-008            
3.2589137e-005  4.2217736e-008            
3.278907e-005  4.2386129e-008            
3.2989004e-005  4.2573368e-008            
3.3188937e-005  4.2577387e-008            
3.338887e-005  4.2582255e-008            
3.3588804e-005  4.2427448e-008            
3.3788737e-005  4.2307359e-008            
3.398867e-005  4.2443499e-008            
3.4188604e-005  4.259203e-008            
3.4388537e-005  4.2296919e-008            
3.458847e-005  4.2080998e-008            
3.4788404e-005  4.1936914e-008            
3.4988337e-005  4.1729326e-008            
3.5188271e-005  4.1623179e-008            
3.5388204e-005  4.1307674e-008            
3.5588137e-005  4.1248505e-008            
3.5788071e-005  4.1138398e-008            
3.5988004e-005  4.0814342e-008            
3.6187937e-005  4.0492631e-008            
3.6387871e-005  4.0411807e-008            
3.6587804e-005  4.0278178e-008            
3.6787737e-005  3.9945478e-008            
3.6987671e-005  3.9609583e-008            
3.7187604e-005  3.9002098e-008            
3.7387537e-005  3.8831805e-008            
3.7587471e-005  3.8710676e-008            
3.7787404e-005  3.847357e-008            
3.7987338e-005  3.81875e-008            
3.8187271e-005  3.7594036e-008            
3.8387204e-005  3.7102735e-008            
3.8587138e-005  3.6815966e-008            
3.8787071e-005  3.6671752e-008            
3.8987004e-005  3.649879e-008            
3.9186938e-005  3.62174e-008            
3.9386871e-005  3.545643e-008            
3.9586804e-005  3.5137651e-008            
3.9786738e-005  3.4633085e-008            
3.9986671e-005  3.4443004e-008            
4.0186604e-005  3.4016678e-008            
4.0386538e-005  3.3586393e-008            
4.0586471e-005  3.3044695e-008            
4.0786405e-005  3.2316806e-008            
4.0986338e-005  3.1743588e-008            
4.1186271e-005  3.1095218e-008            
4.1386205e-005  3.0881831e-008            
4.1586138e-005  3.0311116e-008            
4.1786071e-005  2.9682939e-008            
4.1986005e-005  2.8782137e-008            
4.2185938e-005  2.8038311e-008            
4.2385871e-005  2.7639806e-008            
4.2585805e-005  2.7198676e-008            
4.2785738e-005  2.644535e-008            
4.2985671e-005  2.5421529e-008            
4.3185605e-005  2.4630307e-008            
4.3385538e-005  2.3746248e-008            
4.3585471e-005  2.3190015e-008            
4.3785405e-005  2.2356388e-008            
4.3985338e-005  2.1595685e-008            
4.4185272e-005  2.0726785e-008            
4.4385205e-005  1.9849632e-008            
4.4585138e-005  1.8847167e-008            
4.4785072e-005  1.8131176e-008            
4.4985005e-005  1.7395547e-008            
4.5184938e-005  1.6640047e-008            
4.5384872e-005  1.5694023e-008            
4.5584805e-005  1.4604738e-008            
4.5784738e-005  1.3830422e-008            
4.5984672e-005  1.3001087e-008            
4.6184605e-005  1.2232368e-008            
4.6384538e-005  1.1498309e-008            
4.6584472e-005  1.0471694e-008            
4.6784405e-005  9.5864876e-009            
4.6984339e-005  8.7037104e-009            
4.7184272e-005  7.7451563e-009            
4.7384205e-005  6.8260516e-009            
4.7584139e-005  5.7206771e-009            
4.7784072e-005  4.618771e-009            
4.7984005e-005  3.6700076e-009            
4.8183939e-005  2.5925044e-009            
4.8383872e-005  1.5593106e-009            
4.8583805e-005  5.1393636e-010            
4.8783739e-005  -6.165505e-010            
4.8983672e-005  -1.8251439e-009            
4.9183605e-005  -3.22355e-009            
4.9383539e-005  -4.4318273e-009            
4.9583472e-005  -5.7029155e-009            
4.9783406e-005  -7.1011011e-009            
4.9983339e-005  -8.6161326e-009            
5.0183272e-005  -1.0209872e-008            
5.0383206e-005  -1.1777411e-008            
5.0583139e-005  -1.3222323e-008            
5.0783072e-005  -1.4799884e-008            
5.0983006e-005  -1.6510303e-008            
5.1182939e-005  -1.8151761e-008            
5.1382872e-005  -1.9911212e-008            
5.1582806e-005  -2.1623576e-008            
5.1782739e-005  -2.3350981e-008            
5.1982672e-005  -2.5048299e-008            
5.2182606e-005  -2.676369e-008            
5.2382539e-005  -2.8479134e-008            
5.2582472e-005  -3.0066624e-008            
5.2782406e-005  -3.190012e-008            
5.2982339e-005  -3.3762072e-008            
5.3182273e-005  -3.5592844e-008            
5.3382206e-005  -3.7403477e-008            
5.3582139e-005  -3.9217549e-008            
5.3782073e-005  -4.1231939e-008            
5.3982006e-005  -4.3274364e-008            
5.4181939e-005  -4.5209323e-008            
5.4381873e-005  -4.7012463e-008            
5.4581806e-005  -4.8891781e-008            
5.4781739e-005  -5.0829332e-008            
5.4981673e-005  -5.2729584e-008            
5.5181606e-005  -5.4543025e-008            
5.5381539e-005  -5.6344008e-008            
5.5581473e-005  -5.8282971e-008            
5.5781406e-005  -6.0052069e-008            
5.598134e-005  -6.1752702e-008            
5.6181273e-005  -6.3294145e-008            
5.6381206e-005  -6.5057545e-008            
5.658114e-005  -6.7044293e-008            
5.6781073e-005  -6.880113e-008            
5.6981006e-005  -7.0279703e-008            
5.718094e-005  -7.1816598e-008            
5.7380873e-005  -7.3440869e-008            
5.7580806e-005  -7.5318003e-008            
5.778074e-005  -7.7218492e-008            
5.7980673e-005  -7.8744663e-008            
5.8180606e-005  -8.0388479e-008            
5.838054e-005  -8.2018659e-008            
5.8580473e-005  -8.3865123e-008            
5.8780407e-005  -8.5660137e-008            
5.898034e-005  -8.7570208e-008            
5.9180273e-005  -8.9592109e-008            
5.9380207e-005  -9.1582925e-008            
5.958014e-005  -9.3414067e-008            
5.9780073e-005  -9.5296326e-008            
5.9980007e-005  -9.7480716e-008            
6.017994e-005  -9.9642488e-008            
6.0379873e-005  -1.0164135e-007            
6.0579807e-005  -1.0352519e-007            
6.077974e-005  -1.0542707e-007            
6.0979673e-005  -1.0744771e-007            
6.1179607e-005  -1.0956308e-007            
6.137954e-005  -1.1162762e-007            
6.1579473e-005  -1.1362174e-007            
6.1779407e-005  -1.1569316e-007            
6.197934e-005  -1.1752708e-007            
6.2179274e-005  -1.1947768e-007            
6.2379207e-005  -1.215687e-007            
6.257914e-005  -1.2365261e-007            
6.2779074e-005  -1.2569539e-007            
6.2979007e-005  -1.2764438e-007            
6.317894e-005  -1.2958272e-007            
6.3378874e-005  -1.3168008e-007            
6.3578807e-005  -1.3386995e-007            
6.377874e-005  -1.3603302e-007            
6.3978674e-005  -1.3807556e-007            
6.4178607e-005  -1.3985741e-007            
6.437854e-005  -1.418289e-007            
6.4578474e-005  -1.4401776e-007            
6.4778407e-005  -1.461506e-007            
6.4978341e-005  -1.4832543e-007            
6.5178274e-005  -1.5013526e-007            
6.5378207e-005  -1.5203816e-007            
6.5578141e-005  -1.5406781e-007            
6.5778074e-005  -1.5613742e-007            
6.5978007e-005  -1.5816045e-007            
6.6177941e-005  -1.6009865e-007            
6.6377874e-005  -1.620098e-007            
6.6577807e-005  -1.6395854e-007            
6.6777741e-005  -1.6585872e-007            
6.6977674e-005  -1.6766171e-007            
6.7177607e-005  -1.6980911e-007            
6.7377541e-005  -1.7187014e-007            
6.7577474e-005  -1.738499e-007            
6.7777407e-005  -1.7567061e-007            
6.7977341e-005  -1.7729343e-007            
6.8177274e-005  -1.7937278e-007            
6.8377208e-005  -1.8151227e-007            
6.8577141e-005  -1.8362747e-007            
6.8777074e-005  -1.8540419e-007            
6.8977008e-005  -1.8728383e-007            
6.9176941e-005  -1.8921975e-007            
6.9376874e-005  -1.9107553e-007            
6.9576808e-005  -1.9295488e-007            
6.9776741e-005  -1.94712e-007            
6.9976674e-005  -1.9642391e-007            
7.0176608e-005  -1.9830784e-007            
7.0376541e-005  -1.9995106e-007            
7.0576474e-005  -2.0168245e-007            
7.0776408e-005  -2.0346808e-007            
7.0976341e-005  -2.0517461e-007            
7.1176275e-005  -2.0695993e-007            
7.1376208e-005  -2.0853926e-007            
7.1576141e-005  -2.1017382e-007            
7.1776075e-005  -2.118532e-007            
7.1976008e-005  -2.1354154e-007            
7.2175941e-005  -2.1523887e-007            
7.2375875e-005  -2.1699381e-007            
7.2575808e-005  -2.1865974e-007            
7.2775741e-005  -2.202595e-007            
7.2975675e-005  -2.2185251e-007            
7.3175608e-005  -2.2344045e-007            
7.3375541e-005  -2.2512529e-007            
7.3575475e-005  -2.2682348e-007            
7.3775408e-005  -2.2834182e-007            
7.3975342e-005  -2.29904e-007            
7.4175275e-005  -2.3134797e-007            
7.4375208e-005  -2.3278273e-007            
7.4575142e-005  -2.3439381e-007            
7.4775075e-005  -2.3586447e-007            
7.4975008e-005  -2.3733251e-007            
7.5174942e-005  -2.3866842e-007            
7.5374875e-005  -2.3996605e-007            
7.5574808e-005  -2.4130622e-007            
7.5774742e-005  -2.4252562e-007            
7.5974675e-005  -2.4385317e-007            
7.6174608e-005  -2.4509502e-007            
7.6374542e-005  -2.4619022e-007            
7.6574475e-005  -2.4736613e-007            
7.6774408e-005  -2.483977e-007            
7.6974342e-005  -2.4955013e-007            
7.7174275e-005  -2.5054498e-007            
7.7374209e-005  -2.5151244e-007            
7.7574142e-005  -2.5242049e-007            
7.7774075e-005  -2.531179e-007            
7.7974009e-005  -2.5395737e-007            
7.8173942e-005  -2.5494742e-007            
7.8373875e-005  -2.5578881e-007            
7.8573809e-005  -2.5674049e-007            
7.8773742e-005  -2.5752833e-007            
7.8973675e-005  -2.5830568e-007            
7.9173609e-005  -2.592122e-007            
7.9373542e-005  -2.6011892e-007            
7.9573475e-005  -2.6077423e-007            
7.9773409e-005  -2.6147762e-007            
7.9973342e-005  -2.6202745e-007            
8.0173276e-005  -2.6249576e-007            
8.0373209e-005  -2.6314825e-007            
8.0573142e-005  -2.6384599e-007            
8.0773076e-005  -2.6442454e-007            
8.0973009e-005  -2.6505021e-007            
8.1172942e-005  -2.655891e-007            
8.1372876e-005  -2.6617722e-007            
8.1572809e-005  -2.6672022e-007            
8.1772742e-005  -2.6714977e-007            
8.1972676e-005  -2.6755244e-007            
8.2172609e-005  -2.6813275e-007            
8.2372542e-005  -2.6859583e-007            
8.2572476e-005  -2.6890927e-007            
8.2772409e-005  -2.6909871e-007            
8.2972343e-005  -2.6950296e-007            
8.3172276e-005  -2.699964e-007            
8.3372209e-005  -2.7042635e-007            
8.3572143e-005  -2.7034936e-007            
8.3772076e-005  -2.7054023e-007            
8.3972009e-005  -2.7077644e-007            
8.4171943e-005  -2.7100751e-007            
8.4371876e-005  -2.7124809e-007            
8.4571809e-005  -2.7139932e-007            
8.4771743e-005  -2.7147412e-007            
8.4971676e-005  -2.7147252e-007            
8.5171609e-005  -2.7152337e-007            
8.5371543e-005  -2.715672e-007            
8.5571476e-005  -2.716929e-007            
8.5771409e-005  -2.71876e-007            
8.5971343e-005  -2.7207506e-007            
8.6171276e-005  -2.7198999e-007            
8.637121e-005  -2.7215574e-007            
8.6571143e-005  -2.7231029e-007            
8.6771076e-005  -2.7243927e-007            
8.697101e-005  -2.7254959e-007            
8.7170943e-005  -2.7260933e-007            
8.7370876e-005  -2.727407e-007            
8.757081e-005  -2.7286521e-007            
8.7770743e-005  -2.730731e-007            
8.7970676e-005  -2.7310979e-007            
8.817061e-005  -2.7311465e-007            
8.8370543e-005  -2.7329043e-007            
8.8570476e-005  -2.7351532e-007            
8.877041e-005  -2.736859e-007            
8.8970343e-005  -2.7368477e-007            
8.9170277e-005  -2.7395773e-007            
8.937021e-005  -2.7432847e-007            
8.9570143e-005  -2.7437822e-007            
8.9770077e-005  -2.7430577e-007            
8.997001e-005  -2.744858e-007            
9.0169943e-005  -2.7484222e-007            
9.0369877e-005  -2.7492566e-007            
9.056981e-005  -2.7502063e-007            
9.0769743e-005  -2.750434e-007            
9.0969677e-005  -2.7526474e-007            
9.116961e-005  -2.7574357e-007            
9.1369543e-005  -2.7590287e-007            
9.1569477e-005  -2.7585421e-007            
