Surface Profile             
x       y           
[m]     [m]         
0  -2.888625e-009            
1.9993336e-007  -4.0685968e-009            
3.9986671e-007  -4.8253454e-009            
5.9980007e-007  -5.6910594e-009            
7.9973342e-007  -6.3570224e-009            
9.9966678e-007  -6.7203443e-009            
1.1996001e-006  -7.371506e-009            
1.3995335e-006  -8.172251e-009            
1.5994668e-006  -9.0940689e-009            
1.7994002e-006  -9.7499104e-009            
1.9993336e-006  -1.02671e-008            
2.1992669e-006  -1.1124656e-008            
2.3992003e-006  -1.2030022e-008            
2.5991336e-006  -1.2841643e-008            
2.799067e-006  -1.3594479e-008            
2.9990003e-006  -1.4302523e-008            
3.1989337e-006  -1.5230449e-008            
3.398867e-006  -1.5853529e-008            
3.5988004e-006  -1.6572341e-008            
3.7987338e-006  -1.7227346e-008            
3.9986671e-006  -1.8292792e-008            
4.1986005e-006  -1.9246469e-008            
4.3985338e-006  -2.0008522e-008            
4.5984672e-006  -2.0499698e-008            
4.7984005e-006  -2.1378973e-008            
4.9983339e-006  -2.2323524e-008            
5.1982672e-006  -2.3339996e-008            
5.3982006e-006  -2.4044104e-008            
5.598134e-006  -2.4883955e-008            
5.7980673e-006  -2.5706609e-008            
5.9980007e-006  -2.6592224e-008            
6.197934e-006  -2.7526686e-008            
6.3978674e-006  -2.8365834e-008            
6.5978007e-006  -2.928655e-008            
6.7977341e-006  -3.0044683e-008            
6.9976674e-006  -3.0516123e-008            
7.1976008e-006  -3.1233033e-008            
7.3975342e-006  -3.1840718e-008            
7.5974675e-006  -3.2599373e-008            
7.7974009e-006  -3.3500037e-008            
7.9973342e-006  -3.4166476e-008            
8.1972676e-006  -3.4805234e-008            
8.3972009e-006  -3.555781e-008            
8.5971343e-006  -3.6322673e-008            
8.7970676e-006  -3.7153553e-008            
8.997001e-006  -3.8093939e-008            
9.1969344e-006  -3.8849041e-008            
9.3968677e-006  -3.9589296e-008            
9.5968011e-006  -4.039818e-008            
9.7967344e-006  -4.1278708e-008            
9.9966678e-006  -4.2451973e-008            
1.0196601e-005  -4.3532148e-008            
1.0396534e-005  -4.4391384e-008            
1.0596468e-005  -4.5299729e-008            
1.0796401e-005  -4.6280316e-008            
1.0996335e-005  -4.7354181e-008            
1.1196268e-005  -4.8465713e-008            
1.1396201e-005  -4.9612783e-008            
1.1596135e-005  -5.089091e-008            
1.1796068e-005  -5.1872308e-008            
1.1996001e-005  -5.2874154e-008            
1.2195935e-005  -5.4038458e-008            
1.2395868e-005  -5.5086248e-008            
1.2595801e-005  -5.6237069e-008            
1.2795735e-005  -5.7087945e-008            
1.2995668e-005  -5.7924359e-008            
1.3195601e-005  -5.8736602e-008            
1.3395535e-005  -5.9758632e-008            
1.3595468e-005  -6.0958265e-008            
1.3795402e-005  -6.1860805e-008            
1.3995335e-005  -6.2584009e-008            
1.4195268e-005  -6.3370558e-008            
1.4395202e-005  -6.4291992e-008            
1.4595135e-005  -6.5444288e-008            
1.4795068e-005  -6.6566425e-008            
1.4995002e-005  -6.7403764e-008            
1.5194935e-005  -6.8420514e-008            
1.5394868e-005  -6.9389282e-008            
1.5594802e-005  -7.0469743e-008            
1.5794735e-005  -7.1529636e-008            
1.5994668e-005  -7.2734344e-008            
1.6194602e-005  -7.4127336e-008            
1.6394535e-005  -7.5202414e-008            
1.6594469e-005  -7.6165888e-008            
1.6794402e-005  -7.7377454e-008            
1.6994335e-005  -7.873213e-008            
1.7194269e-005  -7.9942126e-008            
1.7394202e-005  -8.1076217e-008            
1.7594135e-005  -8.206095e-008            
1.7794069e-005  -8.3022928e-008            
1.7994002e-005  -8.4119633e-008            
1.8193935e-005  -8.511245e-008            
1.8393869e-005  -8.6171759e-008            
1.8593802e-005  -8.7077715e-008            
1.8793735e-005  -8.8084888e-008            
1.8993669e-005  -8.9038962e-008            
1.9193602e-005  -9.0112877e-008            
1.9393535e-005  -9.1083077e-008            
1.9593469e-005  -9.2123539e-008            
1.9793402e-005  -9.3087567e-008            
1.9993336e-005  -9.3986015e-008            
2.0193269e-005  -9.4742467e-008            
2.0393202e-005  -9.5762246e-008            
2.0593136e-005  -9.6621999e-008            
2.0793069e-005  -9.7521181e-008            
2.0993002e-005  -9.826135e-008            
2.1192936e-005  -9.8813449e-008            
2.1392869e-005  -9.9634918e-008            
2.1592802e-005  -1.0054831e-007            
2.1792736e-005  -1.0109888e-007            
2.1992669e-005  -1.0168982e-007            
2.2192602e-005  -1.021249e-007            
2.2392536e-005  -1.0266132e-007            
2.2592469e-005  -1.0309481e-007            
2.2792403e-005  -1.0335368e-007            
2.2992336e-005  -1.0367506e-007            
2.3192269e-005  -1.0398706e-007            
2.3392203e-005  -1.0435179e-007            
2.3592136e-005  -1.0431978e-007            
2.3792069e-005  -1.0428238e-007            
2.3992003e-005  -1.0421625e-007            
2.4191936e-005  -1.0445026e-007            
2.4391869e-005  -1.0432229e-007            
2.4591803e-005  -1.0415745e-007            
2.4791736e-005  -1.0391726e-007            
2.4991669e-005  -1.0361548e-007            
2.5191603e-005  -1.0353326e-007            
2.5391536e-005  -1.0314665e-007            
2.5591469e-005  -1.0281935e-007            
2.5791403e-005  -1.0268494e-007            
2.5991336e-005  -1.0235802e-007            
2.619127e-005  -1.0191712e-007            
2.6391203e-005  -1.0123985e-007            
2.6591136e-005  -1.0063999e-007            
2.679107e-005  -1.0009938e-007            
2.6991003e-005  -9.9571804e-008            
2.7190936e-005  -9.8851573e-008            
2.739087e-005  -9.8248953e-008            
2.7590803e-005  -9.7583907e-008            
2.7790736e-005  -9.6939788e-008            
2.799067e-005  -9.609507e-008            
2.8190603e-005  -9.5262188e-008            
2.8390536e-005  -9.4561965e-008            
2.859047e-005  -9.3643015e-008            
2.8790403e-005  -9.2684026e-008            
2.8990337e-005  -9.1540762e-008            
2.919027e-005  -9.0537703e-008            
2.9390203e-005  -8.9619828e-008            
2.9590137e-005  -8.8575695e-008            
2.979007e-005  -8.7318315e-008            
2.9990003e-005  -8.6063506e-008            
3.0189937e-005  -8.4856428e-008            
3.038987e-005  -8.3587739e-008            
3.0589803e-005  -8.2266519e-008            
3.0789737e-005  -8.0895416e-008            
3.098967e-005  -7.9601889e-008            
3.1189603e-005  -7.8229316e-008            
3.1389537e-005  -7.6857563e-008            
3.158947e-005  -7.5496736e-008            
3.1789404e-005  -7.4265215e-008            
3.1989337e-005  -7.2901445e-008            
3.218927e-005  -7.1319417e-008            
3.2389204e-005  -6.9810817e-008            
3.2589137e-005  -6.8173011e-008            
3.278907e-005  -6.6767773e-008            
3.2989004e-005  -6.5422172e-008            
3.3188937e-005  -6.3924438e-008            
3.338887e-005  -6.2291749e-008            
3.3588804e-005  -6.0743652e-008            
3.3788737e-005  -5.9200755e-008            
3.398867e-005  -5.7616793e-008            
3.4188604e-005  -5.6076665e-008            
3.4388537e-005  -5.421976e-008            
3.458847e-005  -5.2590128e-008            
3.4788404e-005  -5.0937142e-008            
3.4988337e-005  -4.9157248e-008            
3.5188271e-005  -4.7504331e-008            
3.5388204e-005  -4.5759996e-008            
3.5588137e-005  -4.4051735e-008            
3.5788071e-005  -4.2316783e-008            
3.5988004e-005  -4.0548461e-008            
3.6187937e-005  -3.8811519e-008            
3.6387871e-005  -3.698954e-008            
3.6587804e-005  -3.517004e-008            
3.6787737e-005  -3.3225463e-008            
3.6987671e-005  -3.1183856e-008            
3.7187604e-005  -2.9397455e-008            
3.7387537e-005  -2.7793134e-008            
3.7587471e-005  -2.6001057e-008            
3.7787404e-005  -2.4299075e-008            
3.7987338e-005  -2.2446964e-008            
3.8187271e-005  -2.0658182e-008            
3.8387204e-005  -1.8689361e-008            
3.8587138e-005  -1.6742728e-008            
3.8787071e-005  -1.4909553e-008            
3.8987004e-005  -1.3225972e-008            
3.9186938e-005  -1.1534501e-008            
3.9386871e-005  -9.4528777e-009            
3.9586804e-005  -7.363626e-009            
3.9786738e-005  -5.5708776e-009            
3.9986671e-005  -3.8450256e-009            
4.0186604e-005  -1.8632638e-009            
4.0386538e-005  3.3345723e-010            
4.0586471e-005  2.5525396e-009            
4.0786405e-005  4.4949465e-009            
4.0986338e-005  6.4315263e-009            
4.1186271e-005  8.6405878e-009            
4.1386205e-005  1.0817854e-008            
4.1586138e-005  1.2833675e-008            
4.1786071e-005  1.4764755e-008            
4.1986005e-005  1.6698216e-008            
4.2185938e-005  1.878597e-008            
4.2385871e-005  2.085098e-008            
4.2585805e-005  2.2510959e-008            
4.2785738e-005  2.4403996e-008            
4.2985671e-005  2.6348556e-008            
4.3185605e-005  2.8127697e-008            
4.3385538e-005  2.9850253e-008            
4.3585471e-005  3.1446034e-008            
4.3785405e-005  3.3329334e-008            
4.3985338e-005  3.5157615e-008            
4.4185272e-005  3.7178323e-008            
4.4385205e-005  3.8998097e-008            
4.4585138e-005  4.0922373e-008            
4.4785072e-005  4.2973464e-008            
4.4985005e-005  4.4882205e-008            
4.5184938e-005  4.6649846e-008            
4.5384872e-005  4.8597264e-008            
4.5584805e-005  5.0425696e-008            
4.5784738e-005  5.2487485e-008            
4.5984672e-005  5.4529647e-008            
4.6184605e-005  5.6586136e-008            
4.6384538e-005  5.8668303e-008            
4.6584472e-005  6.0763089e-008            
4.6784405e-005  6.2762671e-008            
4.6984339e-005  6.4579748e-008            
4.7184272e-005  6.6431232e-008            
4.7384205e-005  6.833437e-008            
4.7584139e-005  7.0295858e-008            
4.7784072e-005  7.2056056e-008            
4.7984005e-005  7.383177e-008            
4.8183939e-005  7.5739874e-008            
4.8383872e-005  7.7821248e-008            
4.8583805e-005  8.0002803e-008            
4.8783739e-005  8.1741289e-008            
4.8983672e-005  8.3478245e-008            
4.9183605e-005  8.5482977e-008            
4.9383539e-005  8.744429e-008            
4.9583472e-005  8.9472055e-008            
4.9783406e-005  9.1283085e-008            
4.9983339e-005  9.3253544e-008            
5.0183272e-005  9.5417328e-008            
5.0383206e-005  9.735892e-008            
5.0583139e-005  9.9383536e-008            
5.0783072e-005  1.0134119e-007            
5.0983006e-005  1.034406e-007            
5.1182939e-005  1.0564735e-007            
5.1382872e-005  1.076105e-007            
5.1582806e-005  1.0941157e-007            
5.1782739e-005  1.1126213e-007            
5.1982672e-005  1.1333359e-007            
5.2182606e-005  1.1513054e-007            
5.2382539e-005  1.1700791e-007            
5.2582472e-005  1.1882711e-007            
5.2782406e-005  1.2072629e-007            
5.2982339e-005  1.2265126e-007            
5.3182273e-005  1.2444011e-007            
5.3382206e-005  1.2605349e-007            
5.3582139e-005  1.276672e-007            
5.3782073e-005  1.2936694e-007            
5.3982006e-005  1.3125638e-007            
5.4181939e-005  1.3309404e-007            
5.4381873e-005  1.3475627e-007            
5.4581806e-005  1.3645782e-007            
5.4781739e-005  1.3809666e-007            
5.4981673e-005  1.3984988e-007            
5.5181606e-005  1.4145651e-007            
5.5381539e-005  1.4324574e-007            
5.5581473e-005  1.4468808e-007            
5.5781406e-005  1.4599511e-007            
5.598134e-005  1.4747135e-007            
5.6181273e-005  1.488154e-007            
5.6381206e-005  1.5031251e-007            
5.658114e-005  1.5150042e-007            
5.6781073e-005  1.526092e-007            
5.6981006e-005  1.5381746e-007            
5.718094e-005  1.549099e-007            
5.7380873e-005  1.5616216e-007            
5.7580806e-005  1.5726499e-007            
5.778074e-005  1.5824427e-007            
5.7980673e-005  1.59359e-007            
5.8180606e-005  1.605478e-007            
5.838054e-005  1.6153378e-007            
5.8580473e-005  1.6267504e-007            
5.8780407e-005  1.6366861e-007            
5.898034e-005  1.6480114e-007            
5.9180273e-005  1.6576763e-007            
5.9380207e-005  1.6668269e-007            
5.958014e-005  1.6760135e-007            
5.9780073e-005  1.6855085e-007            
5.9980007e-005  1.6970924e-007            
6.017994e-005  1.706697e-007            
6.0379873e-005  1.7144881e-007            
6.0579807e-005  1.7241105e-007            
6.077974e-005  1.7341986e-007            
6.0979673e-005  1.7442487e-007            
6.1179607e-005  1.7523819e-007            
6.137954e-005  1.759366e-007            
6.1579473e-005  1.7669002e-007            
6.1779407e-005  1.7746964e-007            
6.197934e-005  1.7823005e-007            
6.2179274e-005  1.7887152e-007            
6.2379207e-005  1.7947879e-007            
6.257914e-005  1.8002263e-007            
6.2779074e-005  1.8054752e-007            
6.2979007e-005  1.8100986e-007            
6.317894e-005  1.8168172e-007            
6.3378874e-005  1.8238928e-007            
6.3578807e-005  1.8286341e-007            
6.377874e-005  1.8327263e-007            
6.3978674e-005  1.8380138e-007            
6.4178607e-005  1.8451365e-007            
6.437854e-005  1.851559e-007            
6.4578474e-005  1.8573462e-007            
6.4778407e-005  1.8632057e-007            
6.4978341e-005  1.8691697e-007            
6.5178274e-005  1.8735446e-007            
6.5378207e-005  1.8778088e-007            
6.5578141e-005  1.8811136e-007            
6.5778074e-005  1.8878119e-007            
6.5978007e-005  1.8933413e-007            
6.6177941e-005  1.8979126e-007            
6.6377874e-005  1.9022411e-007            
6.6577807e-005  1.9056923e-007            
6.6777741e-005  1.9122291e-007            
6.6977674e-005  1.9191275e-007            
6.7177607e-005  1.9244643e-007            
6.7377541e-005  1.9285364e-007            
6.7577474e-005  1.9341856e-007            
6.7777407e-005  1.9408549e-007            
6.7977341e-005  1.9471547e-007            
6.8177274e-005  1.9512253e-007            
6.8377208e-005  1.9546111e-007            
6.8577141e-005  1.9611479e-007            
6.8777074e-005  1.965738e-007            
6.8977008e-005  1.9710157e-007            
6.9176941e-005  1.97434e-007            
6.9376874e-005  1.9791281e-007            
6.9576808e-005  1.9849329e-007            
6.9776741e-005  1.9890544e-007            
6.9976674e-005  1.9924959e-007            
7.0176608e-005  1.9955596e-007            
7.0376541e-005  1.9999086e-007            
7.0576474e-005  2.005276e-007            
7.0776408e-005  2.0069139e-007            
7.0976341e-005  2.0099873e-007            
7.1176275e-005  2.0136762e-007            
7.1376208e-005  2.0179635e-007            
7.1576141e-005  2.0205508e-007            
7.1776075e-005  2.0220747e-007            
7.1976008e-005  2.0227912e-007            
7.2175941e-005  2.0269883e-007            
7.2375875e-005  2.029901e-007            
7.2575808e-005  2.0330206e-007            
7.2775741e-005  2.035562e-007            
7.2975675e-005  2.0373346e-007            
7.3175608e-005  2.0396247e-007            
7.3375541e-005  2.04012e-007            
7.3575475e-005  2.0411806e-007            
7.3775408e-005  2.04295e-007            
7.3975342e-005  2.0471653e-007            
7.4175275e-005  2.0493134e-007            
7.4375208e-005  2.0494449e-007            
7.4575142e-005  2.0518652e-007            
7.4775075e-005  2.0566492e-007            
7.4975008e-005  2.0610773e-007            
7.5174942e-005  2.0654472e-007            
7.5374875e-005  2.068769e-007            
7.5574808e-005  2.0746376e-007            
7.5774742e-005  2.0825129e-007            
7.5974675e-005  2.0891126e-007            
7.6174608e-005  2.0921421e-007            
7.6374542e-005  2.0975525e-007            
7.6574475e-005  2.1041909e-007            
7.6774408e-005  2.1107481e-007            
7.6974342e-005  2.1134179e-007            
7.7174275e-005  2.1153676e-007            
7.7374209e-005  2.1203326e-007            
7.7574142e-005  2.1269645e-007            
7.7774075e-005  2.1328612e-007            
7.7974009e-005  2.1361135e-007            
7.8173942e-005  2.1388471e-007            
7.8373875e-005  2.142858e-007            
7.8573809e-005  2.1479242e-007            
7.8773742e-005  2.151173e-007            
7.8973675e-005  2.1543336e-007            
7.9173609e-005  2.1578062e-007            
7.9373542e-005  2.1629833e-007            
7.9573475e-005  2.1653994e-007            
7.9773409e-005  2.1657577e-007            
7.9973342e-005  2.1681779e-007            
8.0173276e-005  2.1702405e-007            
8.0373209e-005  2.1732095e-007            
8.0573142e-005  2.1728402e-007            
8.0773076e-005  2.1697108e-007            
8.0973009e-005  2.1685813e-007            
8.1172942e-005  2.1680373e-007            
8.1372876e-005  2.166083e-007            
8.1572809e-005  2.1631109e-007            
8.1772742e-005  2.1587876e-007            
8.1972676e-005  2.1552891e-007            
8.2172609e-005  2.1511973e-007            
8.2372542e-005  2.1460328e-007            
8.2572476e-005  2.1434928e-007            
8.2772409e-005  2.1389363e-007            
8.2972343e-005  2.1352479e-007            
8.3172276e-005  2.1298091e-007            
8.3372209e-005  2.1227773e-007            
8.3572143e-005  2.117265e-007            
8.3772076e-005  2.1118864e-007            
8.3972009e-005  2.1042285e-007            
8.4171943e-005  2.0958434e-007            
8.4371876e-005  2.0880128e-007            
8.4571809e-005  2.0811137e-007            
8.4771743e-005  2.0741222e-007            
8.4971676e-005  2.065831e-007            
8.5171609e-005  2.0572861e-007            
8.5371543e-005  2.0477022e-007            
8.5571476e-005  2.0377544e-007            
8.5771409e-005  2.0289003e-007            
8.5971343e-005  2.0214812e-007            
8.6171276e-005  2.0136047e-007            
8.637121e-005  2.0063385e-007            
8.6571143e-005  1.9969258e-007            
8.6771076e-005  1.9870787e-007            
8.697101e-005  1.9787626e-007            
8.7170943e-005  1.9726299e-007            
8.7370876e-005  1.9668668e-007            
8.757081e-005  1.9588034e-007            
8.7770743e-005  1.9496401e-007            
8.7970676e-005  1.9417609e-007            
8.817061e-005  1.9345518e-007            
8.8370543e-005  1.9291242e-007            
8.8570476e-005  1.922256e-007            
8.877041e-005  1.9134808e-007            
8.8970343e-005  1.9052144e-007            
8.9170277e-005  1.8960463e-007            
8.937021e-005  1.8900332e-007            
8.9570143e-005  1.8828142e-007            
8.9770077e-005  1.875817e-007            
8.997001e-005  1.8697315e-007            
9.0169943e-005  1.8612645e-007            
9.0369877e-005  1.8526816e-007            
9.056981e-005  1.8453892e-007            
9.0769743e-005  1.8395625e-007            
9.0969677e-005  1.8325291e-007            
9.116961e-005  1.8252988e-007            
9.1369543e-005  1.8164346e-007            
9.1569477e-005  1.8091109e-007            
9.176941e-005  1.8017115e-007            
9.1969344e-005  1.7943316e-007            
