Surface Profile             
x       y           
[m]     [m]         
0  -1.15084e-009            
1.9993336e-007  -2.0659104e-009            
3.9986671e-007  -3.0262433e-009            
5.9980007e-007  -3.6030919e-009            
7.9973342e-007  -4.305457e-009            
9.9966678e-007  -4.9098598e-009            
1.1996001e-006  -5.2686957e-009            
1.3995335e-006  -5.8791208e-009            
1.5994668e-006  -6.6437795e-009            
1.7994002e-006  -7.2798831e-009            
1.9993336e-006  -8.0787637e-009            
2.1992669e-006  -8.6622534e-009            
2.3992003e-006  -9.2651646e-009            
2.5991336e-006  -1.008836e-008            
2.799067e-006  -1.0774446e-008            
2.9990003e-006  -1.142631e-008            
3.1989337e-006  -1.2208556e-008            
3.398867e-006  -1.2881899e-008            
3.5988004e-006  -1.3709624e-008            
3.7987338e-006  -1.429095e-008            
3.9986671e-006  -1.5041104e-008            
4.1986005e-006  -1.5983929e-008            
4.3985338e-006  -1.6959151e-008            
4.5984672e-006  -1.7623664e-008            
4.7984005e-006  -1.8309561e-008            
4.9983339e-006  -1.906644e-008            
5.1982672e-006  -2.0186245e-008            
5.3982006e-006  -2.1332816e-008            
5.598134e-006  -2.2330165e-008            
5.7980673e-006  -2.3157388e-008            
5.9980007e-006  -2.3991035e-008            
6.197934e-006  -2.5173264e-008            
6.3978674e-006  -2.6321574e-008            
6.5978007e-006  -2.7570735e-008            
6.7977341e-006  -2.8652898e-008            
6.9976674e-006  -2.9664981e-008            
7.1976008e-006  -3.0872307e-008            
7.3975342e-006  -3.209918e-008            
7.5974675e-006  -3.3311687e-008            
7.7974009e-006  -3.4792111e-008            
7.9973342e-006  -3.6244519e-008            
8.1972676e-006  -3.7603089e-008            
8.3972009e-006  -3.8940647e-008            
8.5971343e-006  -4.0359509e-008            
8.7970676e-006  -4.2045499e-008            
8.997001e-006  -4.3862891e-008            
9.1969344e-006  -4.5415358e-008            
9.3968677e-006  -4.7035579e-008            
9.5968011e-006  -4.8516669e-008            
9.7967344e-006  -5.0249182e-008            
9.9966678e-006  -5.222327e-008            
1.0196601e-005  -5.4012743e-008            
1.0396534e-005  -5.5664768e-008            
1.0596468e-005  -5.7372429e-008            
1.0796401e-005  -5.8930305e-008            
1.0996335e-005  -6.068828e-008            
1.1196268e-005  -6.2432874e-008            
1.1396201e-005  -6.3986423e-008            
1.1596135e-005  -6.5732586e-008            
1.1796068e-005  -6.7069976e-008            
1.1996001e-005  -6.852722e-008            
1.2195935e-005  -6.9926234e-008            
1.2395868e-005  -7.1547573e-008            
1.2595801e-005  -7.3235247e-008            
1.2795735e-005  -7.4655355e-008            
1.2995668e-005  -7.585917e-008            
1.3195601e-005  -7.724312e-008            
1.3395535e-005  -7.886953e-008            
1.3595468e-005  -8.0582143e-008            
1.3795402e-005  -8.1994737e-008            
1.3995335e-005  -8.3381162e-008            
1.4195268e-005  -8.4855139e-008            
1.4395202e-005  -8.6319295e-008            
1.4595135e-005  -8.7924268e-008            
1.4795068e-005  -8.9604833e-008            
1.4995002e-005  -9.1294223e-008            
1.5194935e-005  -9.3001535e-008            
1.5394868e-005  -9.4400264e-008            
1.5594802e-005  -9.5857439e-008            
1.5794735e-005  -9.7423987e-008            
1.5994668e-005  -9.9154895e-008            
1.6194602e-005  -1.0093341e-007            
1.6394535e-005  -1.0229709e-007            
1.6594469e-005  -1.0353805e-007            
1.6794402e-005  -1.0505886e-007            
1.6994335e-005  -1.0682974e-007            
1.7194269e-005  -1.0848415e-007            
1.7394202e-005  -1.0990493e-007            
1.7594135e-005  -1.1130163e-007            
1.7794069e-005  -1.1284017e-007            
1.7994002e-005  -1.1453563e-007            
1.8193935e-005  -1.1606807e-007            
1.8393869e-005  -1.1771027e-007            
1.8593802e-005  -1.193511e-007            
1.8793735e-005  -1.2110962e-007            
1.8993669e-005  -1.2278238e-007            
1.9193602e-005  -1.2434451e-007            
1.9393535e-005  -1.2627695e-007            
1.9593469e-005  -1.2835282e-007            
1.9793402e-005  -1.3037061e-007            
1.9993336e-005  -1.3224377e-007            
2.0193269e-005  -1.3403587e-007            
2.0393202e-005  -1.3590385e-007            
2.0593136e-005  -1.3805016e-007            
2.0793069e-005  -1.4013011e-007            
2.0993002e-005  -1.4219798e-007            
2.1192936e-005  -1.4403929e-007            
2.1392869e-005  -1.4603439e-007            
2.1592802e-005  -1.4796951e-007            
2.1792736e-005  -1.4982615e-007            
2.1992669e-005  -1.5197807e-007            
2.2192602e-005  -1.5401024e-007            
2.2392536e-005  -1.5610223e-007            
2.2592469e-005  -1.5814051e-007            
2.2792403e-005  -1.6003286e-007            
2.2992336e-005  -1.6220326e-007            
2.3192269e-005  -1.6458579e-007            
2.3392203e-005  -1.6697245e-007            
2.3592136e-005  -1.6935579e-007            
2.3792069e-005  -1.7171052e-007            
2.3992003e-005  -1.7399534e-007            
2.4191936e-005  -1.7643971e-007            
2.4391869e-005  -1.7887266e-007            
2.4591803e-005  -1.8148099e-007            
2.4791736e-005  -1.8414772e-007            
2.4991669e-005  -1.8673576e-007            
2.5191603e-005  -1.8921865e-007            
2.5391536e-005  -1.9181094e-007            
2.5591469e-005  -1.9457059e-007            
2.5791403e-005  -1.9736406e-007            
2.5991336e-005  -2.0015001e-007            
2.619127e-005  -2.0262414e-007            
2.6391203e-005  -2.0518084e-007            
2.6591136e-005  -2.0788139e-007            
2.679107e-005  -2.1079203e-007            
2.6991003e-005  -2.1361309e-007            
2.7190936e-005  -2.1645106e-007            
2.739087e-005  -2.1923887e-007            
2.7590803e-005  -2.2203485e-007            
2.7790736e-005  -2.2498526e-007            
2.799067e-005  -2.2796218e-007            
2.8190603e-005  -2.310626e-007            
2.8390536e-005  -2.3437252e-007            
2.859047e-005  -2.3734017e-007            
2.8790403e-005  -2.4043265e-007            
2.8990337e-005  -2.4359141e-007            
2.919027e-005  -2.4682054e-007            
2.9390203e-005  -2.5031228e-007            
2.9590137e-005  -2.5360203e-007            
2.979007e-005  -2.5670962e-007            
2.9990003e-005  -2.599155e-007            
3.0189937e-005  -2.6301266e-007            
3.038987e-005  -2.6642654e-007            
3.0589803e-005  -2.6987247e-007            
3.0789737e-005  -2.7306384e-007            
3.098967e-005  -2.7623446e-007            
3.1189603e-005  -2.7910928e-007            
3.1389537e-005  -2.8207952e-007            
3.158947e-005  -2.8534051e-007            
3.1789404e-005  -2.8866957e-007            
3.1989337e-005  -2.9200603e-007            
3.218927e-005  -2.9496076e-007            
3.2389204e-005  -2.9785221e-007            
3.2589137e-005  -3.0092574e-007            
3.278907e-005  -3.0423744e-007            
3.2989004e-005  -3.0763684e-007            
3.3188937e-005  -3.1081572e-007            
3.338887e-005  -3.1407367e-007            
3.3588804e-005  -3.1726741e-007            
3.3788737e-005  -3.2057301e-007            
3.398867e-005  -3.2411615e-007            
3.4188604e-005  -3.2757293e-007            
3.4388537e-005  -3.3094887e-007            
3.458847e-005  -3.3418514e-007            
3.4788404e-005  -3.3718901e-007            
3.4988337e-005  -3.4040602e-007            
3.5188271e-005  -3.4375253e-007            
3.5388204e-005  -3.4705399e-007            
3.5588137e-005  -3.501959e-007            
3.5788071e-005  -3.5312834e-007            
3.5988004e-005  -3.558849e-007            
3.6187937e-005  -3.5877803e-007            
3.6387871e-005  -3.6183392e-007            
3.6587804e-005  -3.6479199e-007            
3.6787737e-005  -3.6785982e-007            
3.6987671e-005  -3.7040814e-007            
3.7187604e-005  -3.7313813e-007            
3.7387537e-005  -3.7613211e-007            
3.7587471e-005  -3.7908866e-007            
3.7787404e-005  -3.8222447e-007            
3.7987338e-005  -3.851961e-007            
3.8187271e-005  -3.8802644e-007            
3.8387204e-005  -3.9076242e-007            
3.8587138e-005  -3.9351295e-007            
3.8787071e-005  -3.9652462e-007            
3.8987004e-005  -3.9962265e-007            
3.9186938e-005  -4.025936e-007            
3.9386871e-005  -4.0535268e-007            
3.9586804e-005  -4.0805e-007            
3.9786738e-005  -4.109001e-007            
3.9986671e-005  -4.140258e-007            
4.0186604e-005  -4.169951e-007            
4.0386538e-005  -4.1990636e-007            
4.0586471e-005  -4.2256406e-007            
4.0786405e-005  -4.2536994e-007            
4.0986338e-005  -4.2807125e-007            
4.1186271e-005  -4.3079259e-007            
4.1386205e-005  -4.3370499e-007            
4.1586138e-005  -4.3657927e-007            
4.1786071e-005  -4.3933719e-007            
4.1986005e-005  -4.4205874e-007            
4.2185938e-005  -4.4467199e-007            
4.2385871e-005  -4.4753802e-007            
4.2585805e-005  -4.5058843e-007            
4.2785738e-005  -4.5351625e-007            
4.2985671e-005  -4.5637351e-007            
4.3185605e-005  -4.5923468e-007            
4.3385538e-005  -4.6241445e-007            
4.3585471e-005  -4.6585898e-007            
4.3785405e-005  -4.6894211e-007            
4.3985338e-005  -4.7218336e-007            
4.4185272e-005  -4.7547575e-007            
4.4385205e-005  -4.7878462e-007            
4.4585138e-005  -4.8212428e-007            
4.4785072e-005  -4.8516248e-007            
4.4985005e-005  -4.8853241e-007            
4.5184938e-005  -4.9207911e-007            
4.5384872e-005  -4.9543962e-007            
4.5584805e-005  -4.9842352e-007            
4.5784738e-005  -5.0147621e-007            
4.5984672e-005  -5.0469069e-007            
4.6184605e-005  -5.0807214e-007            
4.6384538e-005  -5.1115685e-007            
4.6584472e-005  -5.1407462e-007            
4.6784405e-005  -5.1706993e-007            
4.6984339e-005  -5.2024543e-007            
4.7184272e-005  -5.2343088e-007            
4.7384205e-005  -5.2663446e-007            
4.7584139e-005  -5.298407e-007            
4.7784072e-005  -5.3302143e-007            
4.7984005e-005  -5.3613817e-007            
4.8183939e-005  -5.3910372e-007            
4.8383872e-005  -5.4215037e-007            
4.8583805e-005  -5.4531373e-007            
4.8783739e-005  -5.4859963e-007            
4.8983672e-005  -5.5160641e-007            
4.9183605e-005  -5.5440322e-007            
4.9383539e-005  -5.5734236e-007            
4.9583472e-005  -5.6016557e-007            
4.9783406e-005  -5.6321241e-007            
4.9983339e-005  -5.661232e-007            
5.0183272e-005  -5.6883789e-007            
5.0383206e-005  -5.7153028e-007            
5.0583139e-005  -5.7393887e-007            
5.0783072e-005  -5.7680051e-007            
5.0983006e-005  -5.7944033e-007            
5.1182939e-005  -5.8207813e-007            
5.1382872e-005  -5.8482591e-007            
5.1582806e-005  -5.8727757e-007            
5.1782739e-005  -5.8961337e-007            
5.1982672e-005  -5.9215594e-007            
5.2182606e-005  -5.9485505e-007            
5.2382539e-005  -5.9771342e-007            
5.2582472e-005  -6.0041537e-007            
5.2782406e-005  -6.0272766e-007            
5.2982339e-005  -6.0526517e-007            
5.3182273e-005  -6.0769964e-007            
5.3382206e-005  -6.1049972e-007            
5.3582139e-005  -6.1324079e-007            
5.3782073e-005  -6.1573853e-007            
5.3982006e-005  -6.1807017e-007            
5.4181939e-005  -6.20423e-007            
5.4381873e-005  -6.2296348e-007            
5.4581806e-005  -6.2555688e-007            
5.4781739e-005  -6.2817385e-007            
5.4981673e-005  -6.3052441e-007            
5.5181606e-005  -6.3299967e-007            
5.5381539e-005  -6.3531619e-007            
5.5581473e-005  -6.375091e-007            
5.5781406e-005  -6.3972566e-007            
5.598134e-005  -6.4223085e-007            
5.6181273e-005  -6.44847e-007            
5.6381206e-005  -6.4693938e-007            
5.658114e-005  -6.4899016e-007            
5.6781073e-005  -6.510996e-007            
5.6981006e-005  -6.5358159e-007            
5.718094e-005  -6.5627269e-007            
5.7380873e-005  -6.5834133e-007            
5.7580806e-005  -6.603919e-007            
5.778074e-005  -6.626339e-007            
5.7980673e-005  -6.6506295e-007            
5.8180606e-005  -6.6732445e-007            
5.838054e-005  -6.6949987e-007            
5.8580473e-005  -6.71855e-007            
5.8780407e-005  -6.7416047e-007            
5.898034e-005  -6.7630513e-007            
5.9180273e-005  -6.7843264e-007            
5.9380207e-005  -6.8094682e-007            
5.958014e-005  -6.8317739e-007            
5.9780073e-005  -6.8526241e-007            
5.9980007e-005  -6.8707444e-007            
6.017994e-005  -6.8900539e-007            
6.0379873e-005  -6.909024e-007            
6.0579807e-005  -6.9296763e-007            
6.077974e-005  -6.9493341e-007            
6.0979673e-005  -6.9662177e-007            
6.1179607e-005  -6.9823847e-007            
6.137954e-005  -6.9982208e-007            
6.1579473e-005  -7.0169536e-007            
6.1779407e-005  -7.0351323e-007            
6.197934e-005  -7.0519083e-007            
6.2179274e-005  -7.0662406e-007            
6.2379207e-005  -7.0793126e-007            
6.257914e-005  -7.0937786e-007            
6.2779074e-005  -7.1073539e-007            
6.2979007e-005  -7.1208915e-007            
6.317894e-005  -7.132733e-007            
6.3378874e-005  -7.1458896e-007            
6.3578807e-005  -7.1570459e-007            
6.377874e-005  -7.1668595e-007            
6.3978674e-005  -7.1797683e-007            
6.4178607e-005  -7.1908943e-007            
6.437854e-005  -7.2023737e-007            
6.4578474e-005  -7.2117713e-007            
6.4778407e-005  -7.220802e-007            
6.4978341e-005  -7.2332327e-007            
6.5178274e-005  -7.2439531e-007            
6.5378207e-005  -7.2531117e-007            
6.5578141e-005  -7.2641299e-007            
6.5778074e-005  -7.2734069e-007            
6.5978007e-005  -7.2832521e-007            
6.6177941e-005  -7.2927494e-007            
6.6377874e-005  -7.3006445e-007            
6.6577807e-005  -7.312509e-007            
6.6777741e-005  -7.3236708e-007            
6.6977674e-005  -7.3343363e-007            
6.7177607e-005  -7.3448275e-007            
6.7377541e-005  -7.3540641e-007            
6.7577474e-005  -7.3616019e-007            
6.7777407e-005  -7.3694442e-007            
6.7977341e-005  -7.3773715e-007            
6.8177274e-005  -7.3859533e-007            
6.8377208e-005  -7.3948236e-007            
6.8577141e-005  -7.4018296e-007            
6.8777074e-005  -7.4097829e-007            
6.8977008e-005  -7.4163013e-007            
6.9176941e-005  -7.4256409e-007            
6.9376874e-005  -7.4339776e-007            
6.9576808e-005  -7.4402513e-007            
6.9776741e-005  -7.4467387e-007            
6.9976674e-005  -7.4529963e-007            
7.0176608e-005  -7.4607859e-007            
7.0376541e-005  -7.4681866e-007            
7.0576474e-005  -7.4748902e-007            
7.0776408e-005  -7.4810212e-007            
7.0976341e-005  -7.4873697e-007            
7.1176275e-005  -7.4913054e-007            
7.1376208e-005  -7.4973115e-007            
7.1576141e-005  -7.5039927e-007            
7.1776075e-005  -7.5110109e-007            
7.1976008e-005  -7.5163492e-007            
7.2175941e-005  -7.5215544e-007            
7.2375875e-005  -7.525354e-007            
7.2575808e-005  -7.5291435e-007            
7.2775741e-005  -7.5368383e-007            
7.2975675e-005  -7.5443683e-007            
7.3175608e-005  -7.5494241e-007            
7.3375541e-005  -7.5540953e-007            
7.3575475e-005  -7.5576815e-007            
7.3775408e-005  -7.5648901e-007            
7.3975342e-005  -7.5704821e-007            
7.4175275e-005  -7.575481e-007            
7.4375208e-005  -7.5794822e-007            
7.4575142e-005  -7.583128e-007            
7.4775075e-005  -7.586594e-007            
7.4975008e-005  -7.5908604e-007            
7.5174942e-005  -7.5948502e-007            
7.5374875e-005  -7.5974215e-007            
7.5574808e-005  -7.5993961e-007            
7.5774742e-005  -7.5988485e-007            
7.5974675e-005  -7.6007138e-007            
7.6174608e-005  -7.6026187e-007            
7.6374542e-005  -7.6059578e-007            
7.6574475e-005  -7.6079181e-007            
7.6774408e-005  -7.6066129e-007            
7.6974342e-005  -7.6064768e-007            
7.7174275e-005  -7.607159e-007            
7.7374209e-005  -7.6076894e-007            
7.7574142e-005  -7.6090428e-007            
7.7774075e-005  -7.6089072e-007            
7.7974009e-005  -7.6082554e-007            
7.8173942e-005  -7.6083493e-007            
7.8373875e-005  -7.6064029e-007            
7.8573809e-005  -7.603763e-007            
7.8773742e-005  -7.6022191e-007            
7.8973675e-005  -7.6013579e-007            
7.9173609e-005  -7.600285e-007            
7.9373542e-005  -7.596851e-007            
7.9573475e-005  -7.5929089e-007            
7.9773409e-005  -7.5922951e-007            
7.9973342e-005  -7.5928406e-007            
8.0173276e-005  -7.5927592e-007            
8.0373209e-005  -7.5888905e-007            
8.0573142e-005  -7.5854888e-007            
8.0773076e-005  -7.5861445e-007            
8.0973009e-005  -7.5869487e-007            
8.1172942e-005  -7.5864594e-007            
8.1372876e-005  -7.5866011e-007            
8.1572809e-005  -7.5847259e-007            
8.1772742e-005  -7.5848006e-007            
8.1972676e-005  -7.5839116e-007            
8.2172609e-005  -7.5827849e-007            
8.2372542e-005  -7.5857553e-007            
8.2572476e-005  -7.5865469e-007            
8.2772409e-005  -7.587783e-007            
8.2972343e-005  -7.5867565e-007            
8.3172276e-005  -7.5850444e-007            
8.3372209e-005  -7.5855094e-007            
8.3572143e-005  -7.58656e-007            
8.3772076e-005  -7.5893921e-007            
8.3972009e-005  -7.5884292e-007            
8.4171943e-005  -7.5877734e-007            
8.4371876e-005  -7.5882251e-007            
8.4571809e-005  -7.5897547e-007            
8.4771743e-005  -7.5890138e-007            
8.4971676e-005  -7.5889274e-007            
8.5171609e-005  -7.5892293e-007            
8.5371543e-005  -7.5918577e-007            
8.5571476e-005  -7.5926134e-007            
8.5771409e-005  -7.5925486e-007            
8.5971343e-005  -7.5946673e-007            
8.6171276e-005  -7.598841e-007            
8.637121e-005  -7.6005982e-007            
8.6571143e-005  -7.6011459e-007            
8.6771076e-005  -7.6020702e-007            
8.697101e-005  -7.6040223e-007            
8.7170943e-005  -7.6072206e-007            
8.7370876e-005  -7.6066263e-007            
8.757081e-005  -7.6069153e-007            
8.7770743e-005  -7.6082198e-007            
8.7970676e-005  -7.6118085e-007            
8.817061e-005  -7.6127482e-007            
8.8370543e-005  -7.6114604e-007            
8.8570476e-005  -7.6127286e-007            
8.877041e-005  -7.6145497e-007            
8.8970343e-005  -7.6152619e-007            
8.9170277e-005  -7.6146107e-007            
8.937021e-005  -7.6142623e-007            
8.9570143e-005  -7.6154552e-007            
8.9770077e-005  -7.6181606e-007            
8.997001e-005  -7.6181592e-007            
9.0169943e-005  -7.6190934e-007            
9.0369877e-005  -7.6195125e-007            
9.056981e-005  -7.6195643e-007            
9.0769743e-005  -7.6220081e-007            
