Surface Profile             
x       y           
[m]     [m]         
0  1.2749639e-010            
1.9993336e-007  5.675962e-010            
3.9986671e-007  9.1406333e-010            
5.9980007e-007  1.231858e-009            
7.9973342e-007  1.5658375e-009            
9.9966678e-007  1.6641243e-009            
1.1996001e-006  1.7138751e-009            
1.3995335e-006  2.1166472e-009            
1.5994668e-006  2.5248055e-009            
1.7994002e-006  2.7056e-009            
1.9993336e-006  3.0762629e-009            
2.1992669e-006  3.3136832e-009            
2.3992003e-006  3.5897186e-009            
2.5991336e-006  3.8709147e-009            
2.799067e-006  4.1014118e-009            
2.9990003e-006  4.6228979e-009            
3.1989337e-006  5.1189816e-009            
3.398867e-006  5.5093164e-009            
3.5988004e-006  5.738029e-009            
3.7987338e-006  6.1646136e-009            
3.9986671e-006  6.6577386e-009            
4.1986005e-006  7.3142359e-009            
4.3985338e-006  7.8172586e-009            
4.5984672e-006  8.0848461e-009            
4.7984005e-006  8.4752845e-009            
4.9983339e-006  8.7306558e-009            
5.1982672e-006  9.1428809e-009            
5.3982006e-006  9.5296774e-009            
5.598134e-006  1.0051116e-008            
5.7980673e-006  1.0348139e-008            
5.9980007e-006  1.0381349e-008            
6.197934e-006  1.0323566e-008            
6.3978674e-006  1.0580157e-008            
6.5978007e-006  1.0857349e-008            
6.7977341e-006  1.120523e-008            
6.9976674e-006  1.1356234e-008            
7.1976008e-006  1.1344699e-008            
7.3975342e-006  1.1533947e-008            
7.5974675e-006  1.1878053e-008            
7.7974009e-006  1.2264512e-008            
7.9973342e-006  1.2366811e-008            
8.1972676e-006  1.2387418e-008            
8.3972009e-006  1.2701156e-008            
8.5971343e-006  1.2891836e-008            
8.7970676e-006  1.3225338e-008            
8.997001e-006  1.3292177e-008            
9.1969344e-006  1.3539575e-008            
9.3968677e-006  1.380082e-008            
9.5968011e-006  1.380632e-008            
9.7967344e-006  1.3990242e-008            
9.9966678e-006  1.4111165e-008            
1.0196601e-005  1.4323149e-008            
1.0396534e-005  1.4641655e-008            
1.0596468e-005  1.47506e-008            
1.0796401e-005  1.4817418e-008            
1.0996335e-005  1.5044038e-008            
1.1196268e-005  1.5276759e-008            
1.1396201e-005  1.5706132e-008            
1.1596135e-005  1.5910803e-008            
1.1796068e-005  1.6009063e-008            
1.1996001e-005  1.6137045e-008            
1.2195935e-005  1.6408419e-008            
1.2395868e-005  1.6699934e-008            
1.2595801e-005  1.7041052e-008            
1.2795735e-005  1.7306791e-008            
1.2995668e-005  1.7511919e-008            
1.3195601e-005  1.7798901e-008            
1.3395535e-005  1.8100339e-008            
1.3595468e-005  1.8354424e-008            
1.3795402e-005  1.8796037e-008            
1.3995335e-005  1.898379e-008            
1.4195268e-005  1.9211986e-008            
1.4395202e-005  1.9458221e-008            
1.4595135e-005  2.0043632e-008            
1.4795068e-005  2.058332e-008            
1.4995002e-005  2.1097437e-008            
1.5194935e-005  2.1529064e-008            
1.5394868e-005  2.1947055e-008            
1.5594802e-005  2.2579477e-008            
1.5794735e-005  2.3094655e-008            
1.5994668e-005  2.3645968e-008            
1.6194602e-005  2.4292604e-008            
1.6394535e-005  2.4734597e-008            
1.6594469e-005  2.5328444e-008            
1.6794402e-005  2.5873626e-008            
1.6994335e-005  2.6302352e-008            
1.7194269e-005  2.6856171e-008            
1.7394202e-005  2.738691e-008            
1.7594135e-005  2.7901383e-008            
1.7794069e-005  2.8337187e-008            
1.7994002e-005  2.8765314e-008            
1.8193935e-005  2.9239748e-008            
1.8393869e-005  2.9811659e-008            
1.8593802e-005  3.035279e-008            
1.8793735e-005  3.0849667e-008            
1.8993669e-005  3.1037569e-008            
1.9193602e-005  3.1441682e-008            
1.9393535e-005  3.1783016e-008            
1.9593469e-005  3.2114026e-008            
1.9793402e-005  3.2581432e-008            
1.9993336e-005  3.2922655e-008            
2.0193269e-005  3.3353429e-008            
2.0393202e-005  3.3730056e-008            
2.0593136e-005  3.3953862e-008            
2.0793069e-005  3.417484e-008            
2.0993002e-005  3.4634105e-008            
2.1192936e-005  3.4919662e-008            
2.1392869e-005  3.5225321e-008            
2.1592802e-005  3.547154e-008            
2.1792736e-005  3.5709621e-008            
2.1992669e-005  3.6013798e-008            
2.2192602e-005  3.6303595e-008            
2.2392536e-005  3.6695609e-008            
2.2592469e-005  3.6939249e-008            
2.2792403e-005  3.7022045e-008            
2.2992336e-005  3.7207087e-008            
2.3192269e-005  3.7452023e-008            
2.3392203e-005  3.762591e-008            
2.3592136e-005  3.7879685e-008            
2.3792069e-005  3.7911178e-008            
2.3992003e-005  3.8054968e-008            
2.4191936e-005  3.830165e-008            
2.4391869e-005  3.8447347e-008            
2.4591803e-005  3.8808088e-008            
2.4791736e-005  3.8930315e-008            
2.4991669e-005  3.8988703e-008            
2.5191603e-005  3.8930627e-008            
2.5391536e-005  3.9023668e-008            
2.5591469e-005  3.9143994e-008            
2.5791403e-005  3.9216775e-008            
2.5991336e-005  3.9174412e-008            
2.619127e-005  3.932895e-008            
2.6391203e-005  3.928637e-008            
2.6591136e-005  3.9037176e-008            
2.679107e-005  3.8940771e-008            
2.6991003e-005  3.9152953e-008            
2.7190936e-005  3.9296808e-008            
2.739087e-005  3.9067948e-008            
2.7590803e-005  3.8710717e-008            
2.7790736e-005  3.8536887e-008            
2.799067e-005  3.8630029e-008            
2.8190603e-005  3.8772336e-008            
2.8390536e-005  3.8634965e-008            
2.859047e-005  3.8508632e-008            
2.8790403e-005  3.8377956e-008            
2.8990337e-005  3.8257632e-008            
2.919027e-005  3.8202506e-008            
2.9390203e-005  3.8122472e-008            
2.9590137e-005  3.8176732e-008            
2.979007e-005  3.8149471e-008            
2.9990003e-005  3.7950845e-008            
3.0189937e-005  3.7621546e-008            
3.038987e-005  3.7550016e-008            
3.0589803e-005  3.7661155e-008            
3.0789737e-005  3.776726e-008            
3.098967e-005  3.7678e-008            
3.1189603e-005  3.7358673e-008            
3.1389537e-005  3.7259135e-008            
3.158947e-005  3.7142414e-008            
3.1789404e-005  3.7113804e-008            
3.1989337e-005  3.7096574e-008            
3.218927e-005  3.6937194e-008            
3.2389204e-005  3.695006e-008            
3.2589137e-005  3.6845841e-008            
3.278907e-005  3.669787e-008            
3.2989004e-005  3.6899238e-008            
3.3188937e-005  3.6935246e-008            
3.338887e-005  3.6654704e-008            
3.3588804e-005  3.6357209e-008            
3.3788737e-005  3.6037264e-008            
3.398867e-005  3.5983509e-008            
3.4188604e-005  3.5728671e-008            
3.4388537e-005  3.5458586e-008            
3.458847e-005  3.5005193e-008            
3.4788404e-005  3.4486485e-008            
3.4988337e-005  3.4224939e-008            
3.5188271e-005  3.3780943e-008            
3.5388204e-005  3.3338819e-008            
3.5588137e-005  3.2819708e-008            
3.5788071e-005  3.2368325e-008            
3.5988004e-005  3.1868377e-008            
3.6187937e-005  3.137045e-008            
3.6387871e-005  3.0844375e-008            
3.6587804e-005  3.0481223e-008            
3.6787737e-005  2.9952104e-008            
3.6987671e-005  2.9426526e-008            
3.7187604e-005  2.8708656e-008            
3.7387537e-005  2.7999991e-008            
3.7587471e-005  2.7503039e-008            
3.7787404e-005  2.7111435e-008            
3.7987338e-005  2.6327112e-008            
3.8187271e-005  2.5645358e-008            
3.8387204e-005  2.4874965e-008            
3.8587138e-005  2.4254605e-008            
3.8787071e-005  2.367913e-008            
3.8987004e-005  2.3090894e-008            
3.9186938e-005  2.2365563e-008            
3.9386871e-005  2.1602412e-008            
3.9586804e-005  2.0817048e-008            
3.9786738e-005  2.0067403e-008            
3.9986671e-005  1.9229107e-008            
4.0186604e-005  1.8339076e-008            
4.0386538e-005  1.7471704e-008            
4.0586471e-005  1.6532283e-008            
4.0786405e-005  1.5760973e-008            
4.0986338e-005  1.4790573e-008            
4.1186271e-005  1.3975154e-008            
4.1386205e-005  1.3190563e-008            
4.1586138e-005  1.229976e-008            
4.1786071e-005  1.1579516e-008            
4.1986005e-005  1.0649637e-008            
4.2185938e-005  9.5862826e-009            
4.2385871e-005  8.7935325e-009            
4.2585805e-005  7.7944212e-009            
4.2785738e-005  6.8456367e-009            
4.2985671e-005  5.9005255e-009            
4.3185605e-005  4.6442379e-009            
4.3385538e-005  3.4350642e-009            
4.3585471e-005  2.3248192e-009            
4.3785405e-005  1.0738622e-009            
4.3985338e-005  9.5058868e-011            
4.4185272e-005  -1.1499976e-009            
4.4385205e-005  -2.4745976e-009            
4.4585138e-005  -3.8067602e-009            
4.4785072e-005  -5.1824733e-009            
4.4985005e-005  -6.4358084e-009            
4.5184938e-005  -7.6353846e-009            
4.5384872e-005  -9.0739716e-009            
4.5584805e-005  -1.0477579e-008            
4.5784738e-005  -1.1862288e-008            
4.5984672e-005  -1.3359218e-008            
4.6184605e-005  -1.4775478e-008            
4.6384538e-005  -1.6258778e-008            
4.6584472e-005  -1.7546349e-008            
4.6784405e-005  -1.9106283e-008            
4.6984339e-005  -2.0595001e-008            
4.7184272e-005  -2.2161494e-008            
4.7384205e-005  -2.374752e-008            
4.7584139e-005  -2.5067818e-008            
4.7784072e-005  -2.6642405e-008            
4.7984005e-005  -2.8274246e-008            
4.8183939e-005  -3.0073665e-008            
4.8383872e-005  -3.1759837e-008            
4.8583805e-005  -3.3155373e-008            
4.8783739e-005  -3.4725357e-008            
4.8983672e-005  -3.6394555e-008            
4.9183605e-005  -3.8095822e-008            
4.9383539e-005  -3.9806078e-008            
4.9583472e-005  -4.1541448e-008            
4.9783406e-005  -4.3043642e-008            
4.9983339e-005  -4.4726237e-008            
5.0183272e-005  -4.6324323e-008            
5.0383206e-005  -4.8139453e-008            
5.0583139e-005  -4.9926299e-008            
5.0783072e-005  -5.1567567e-008            
5.0983006e-005  -5.3041573e-008            
5.1182939e-005  -5.4562335e-008            
5.1382872e-005  -5.6181649e-008            
5.1582806e-005  -5.7957159e-008            
5.1782739e-005  -5.957317e-008            
5.1982672e-005  -6.1124301e-008            
5.2182606e-005  -6.2730239e-008            
5.2382539e-005  -6.4202731e-008            
5.2582472e-005  -6.5912335e-008            
5.2782406e-005  -6.7728637e-008            
5.2982339e-005  -6.9657633e-008            
5.3182273e-005  -7.1597593e-008            
5.3382206e-005  -7.3310573e-008            
5.3582139e-005  -7.5092346e-008            
5.3782073e-005  -7.6970602e-008            
5.3982006e-005  -7.9130678e-008            
5.4181939e-005  -8.1434031e-008            
5.4381873e-005  -8.3377854e-008            
5.4581806e-005  -8.5391362e-008            
5.4781739e-005  -8.7340287e-008            
5.4981673e-005  -8.9464268e-008            
5.5181606e-005  -9.1731672e-008            
5.5381539e-005  -9.3904896e-008            
5.5581473e-005  -9.6094169e-008            
5.5781406e-005  -9.8162787e-008            
5.598134e-005  -1.0028008e-007            
5.6181273e-005  -1.0237906e-007            
5.6381206e-005  -1.046434e-007            
5.658114e-005  -1.0683935e-007            
5.6781073e-005  -1.0904896e-007            
5.6981006e-005  -1.110655e-007            
5.718094e-005  -1.1311166e-007            
5.7380873e-005  -1.1528059e-007            
5.7580806e-005  -1.1747827e-007            
5.778074e-005  -1.1979397e-007            
5.7980673e-005  -1.2189642e-007            
5.8180606e-005  -1.2405905e-007            
5.838054e-005  -1.2618393e-007            
5.8580473e-005  -1.2823165e-007            
5.8780407e-005  -1.3035907e-007            
5.898034e-005  -1.3263454e-007            
5.9180273e-005  -1.3487358e-007            
5.9380207e-005  -1.3700203e-007            
5.958014e-005  -1.3915054e-007            
5.9780073e-005  -1.4111932e-007            
5.9980007e-005  -1.4324525e-007            
6.017994e-005  -1.4533417e-007            
6.0379873e-005  -1.4740341e-007            
6.0579807e-005  -1.4919688e-007            
6.077974e-005  -1.5104071e-007            
6.0979673e-005  -1.5294214e-007            
6.1179607e-005  -1.5482198e-007            
6.137954e-005  -1.565964e-007            
6.1579473e-005  -1.5837644e-007            
6.1779407e-005  -1.6003523e-007            
6.197934e-005  -1.6193369e-007            
6.2179274e-005  -1.6372603e-007            
6.2379207e-005  -1.6540678e-007            
6.257914e-005  -1.6721233e-007            
6.2779074e-005  -1.6893841e-007            
6.2979007e-005  -1.708318e-007            
6.317894e-005  -1.7263635e-007            
6.3378874e-005  -1.742397e-007            
6.3578807e-005  -1.7620917e-007            
6.377874e-005  -1.7813596e-007            
6.3978674e-005  -1.8010535e-007            
6.4178607e-005  -1.8192963e-007            
6.437854e-005  -1.8391655e-007            
6.4578474e-005  -1.8576998e-007            
6.4778407e-005  -1.8778176e-007            
6.4978341e-005  -1.8960846e-007            
6.5178274e-005  -1.9142514e-007            
6.5378207e-005  -1.9328699e-007            
6.5578141e-005  -1.9497596e-007            
6.5778074e-005  -1.9662982e-007            
6.5978007e-005  -1.9828689e-007            
6.6177941e-005  -1.9994626e-007            
6.6377874e-005  -2.0180821e-007            
6.6577807e-005  -2.0359151e-007            
6.6777741e-005  -2.0531697e-007            
6.6977674e-005  -2.0684887e-007            
6.7177607e-005  -2.0853507e-007            
6.7377541e-005  -2.1018439e-007            
6.7577474e-005  -2.119588e-007            
6.7777407e-005  -2.1381507e-007            
6.7977341e-005  -2.1549557e-007            
6.8177274e-005  -2.1708395e-007            
6.8377208e-005  -2.1847272e-007            
6.8577141e-005  -2.2004912e-007            
6.8777074e-005  -2.2172142e-007            
6.8977008e-005  -2.2335138e-007            
6.9176941e-005  -2.2485395e-007            
6.9376874e-005  -2.2622852e-007            
6.9576808e-005  -2.2750337e-007            
6.9776741e-005  -2.2891749e-007            
6.9976674e-005  -2.3045827e-007            
7.0176608e-005  -2.3187661e-007            
7.0376541e-005  -2.3318939e-007            
7.0576474e-005  -2.3434069e-007            
7.0776408e-005  -2.3549556e-007            
7.0976341e-005  -2.3691949e-007            
7.1176275e-005  -2.3832445e-007            
7.1376208e-005  -2.3946469e-007            
7.1576141e-005  -2.4062669e-007            
7.1776075e-005  -2.417585e-007            
7.1976008e-005  -2.4309153e-007            
7.2175941e-005  -2.4432828e-007            
7.2375875e-005  -2.4549393e-007            
7.2575808e-005  -2.4673232e-007            
7.2775741e-005  -2.4791652e-007            
7.2975675e-005  -2.4927099e-007            
7.3175608e-005  -2.5046316e-007            
7.3375541e-005  -2.5162866e-007            
7.3575475e-005  -2.5294474e-007            
7.3775408e-005  -2.5416155e-007            
7.3975342e-005  -2.5543586e-007            
7.4175275e-005  -2.5673561e-007            
7.4375208e-005  -2.5788995e-007            
7.4575142e-005  -2.5912081e-007            
7.4775075e-005  -2.6035027e-007            
7.4975008e-005  -2.614613e-007            
7.5174942e-005  -2.625897e-007            
7.5374875e-005  -2.6350137e-007            
7.5574808e-005  -2.6435888e-007            
7.5774742e-005  -2.6529843e-007            
7.5974675e-005  -2.6622416e-007            
7.6174608e-005  -2.6696172e-007            
7.6374542e-005  -2.6772256e-007            
7.6574475e-005  -2.6863504e-007            
7.6774408e-005  -2.6955672e-007            
7.6974342e-005  -2.702514e-007            
7.7174275e-005  -2.7082863e-007            
7.7374209e-005  -2.7140219e-007            
7.7574142e-005  -2.7213141e-007            
7.7774075e-005  -2.7281468e-007            
7.7974009e-005  -2.7349097e-007            
7.8173942e-005  -2.7402702e-007            
7.8373875e-005  -2.7444235e-007            
7.8573809e-005  -2.7477558e-007            
7.8773742e-005  -2.7533645e-007            
7.8973675e-005  -2.7568295e-007            
7.9173609e-005  -2.7611964e-007            
7.9373542e-005  -2.7658624e-007            
7.9573475e-005  -2.7669939e-007            
7.9773409e-005  -2.7698019e-007            
7.9973342e-005  -2.7724745e-007            
8.0173276e-005  -2.7756005e-007            
8.0373209e-005  -2.7784189e-007            
8.0573142e-005  -2.7788872e-007            
8.0773076e-005  -2.7804604e-007            
8.0973009e-005  -2.7827397e-007            
8.1172942e-005  -2.7818552e-007            
8.1372876e-005  -2.781815e-007            
8.1572809e-005  -2.7813092e-007            
8.1772742e-005  -2.7811908e-007            
8.1972676e-005  -2.7799907e-007            
8.2172609e-005  -2.7755014e-007            
8.2372542e-005  -2.7726089e-007            
8.2572476e-005  -2.771483e-007            
8.2772409e-005  -2.770396e-007            
8.2972343e-005  -2.7671593e-007            
8.3172276e-005  -2.762731e-007            
8.3372209e-005  -2.7576023e-007            
8.3572143e-005  -2.7538701e-007            
8.3772076e-005  -2.7499017e-007            
8.3972009e-005  -2.7450947e-007            
8.4171943e-005  -2.7402977e-007            
8.4371876e-005  -2.7349924e-007            
8.4571809e-005  -2.7305911e-007            
8.4771743e-005  -2.7282212e-007            
8.4971676e-005  -2.7242576e-007            
8.5171609e-005  -2.7194401e-007            
8.5371543e-005  -2.7146369e-007            
8.5571476e-005  -2.7127168e-007            
8.5771409e-005  -2.7093081e-007            
8.5971343e-005  -2.7064725e-007            
8.6171276e-005  -2.7032137e-007            
8.637121e-005  -2.7013498e-007            
8.6571143e-005  -2.6993667e-007            
8.6771076e-005  -2.6961805e-007            
8.697101e-005  -2.6927754e-007            
8.7170943e-005  -2.6908427e-007            
8.7370876e-005  -2.6890388e-007            
8.757081e-005  -2.6872596e-007            
8.7770743e-005  -2.6855148e-007            
8.7970676e-005  -2.6823058e-007            
8.817061e-005  -2.6811377e-007            
8.8370543e-005  -2.6807174e-007            
8.8570476e-005  -2.6801198e-007            
8.877041e-005  -2.6803151e-007            
8.8970343e-005  -2.6780283e-007            
8.9170277e-005  -2.677299e-007            
8.937021e-005  -2.6772547e-007            
8.9570143e-005  -2.6773345e-007            
8.9770077e-005  -2.6781615e-007            
8.997001e-005  -2.6784219e-007            
9.0169943e-005  -2.6782919e-007            
9.0369877e-005  -2.6799332e-007            
9.056981e-005  -2.6810625e-007            
9.0769743e-005  -2.6819531e-007            
9.0969677e-005  -2.6833539e-007            
9.116961e-005  -2.6835132e-007            
9.1369543e-005  -2.6866783e-007            
9.1569477e-005  -2.6896442e-007            
9.176941e-005  -2.6912567e-007            
