Surface Profile             
x       y           
[m]     [m]         
0  5.114664e-009            
1.9993336e-007  6.1749905e-009            
3.9986671e-007  6.9627049e-009            
5.9980007e-007  7.8638604e-009            
7.9973342e-007  8.4111397e-009            
9.9966678e-007  9.2603529e-009            
1.1996001e-006  1.0428852e-008            
1.3995335e-006  1.1196475e-008            
1.5994668e-006  1.2054402e-008            
1.7994002e-006  1.2930073e-008            
1.9993336e-006  1.4081947e-008            
2.1992669e-006  1.5333374e-008            
2.3992003e-006  1.6439127e-008            
2.5991336e-006  1.7514671e-008            
2.799067e-006  1.8658895e-008            
2.9990003e-006  1.9842438e-008            
3.1989337e-006  2.1157911e-008            
3.398867e-006  2.259489e-008            
3.5988004e-006  2.4144812e-008            
3.7987338e-006  2.5630059e-008            
3.9986671e-006  2.7093497e-008            
4.1986005e-006  2.8351888e-008            
4.3985338e-006  2.9816416e-008            
4.5984672e-006  3.1706846e-008            
4.7984005e-006  3.3473872e-008            
4.9983339e-006  3.5042295e-008            
5.1982672e-006  3.6402196e-008            
5.3982006e-006  3.7877154e-008            
5.598134e-006  3.9620814e-008            
5.7980673e-006  4.1469737e-008            
5.9980007e-006  4.3392642e-008            
6.197934e-006  4.5127921e-008            
6.3978674e-006  4.6525659e-008            
6.5978007e-006  4.8054133e-008            
6.7977341e-006  4.9664183e-008            
6.9976674e-006  5.1732361e-008            
7.1976008e-006  5.3514925e-008            
7.3975342e-006  5.5205125e-008            
7.5974675e-006  5.6711189e-008            
7.7974009e-006  5.8213301e-008            
7.9973342e-006  5.9973451e-008            
8.1972676e-006  6.1598003e-008            
8.3972009e-006  6.325436e-008            
8.5971343e-006  6.4955216e-008            
8.7970676e-006  6.6305037e-008            
8.997001e-006  6.7641808e-008            
9.1969344e-006  6.9001228e-008            
9.3968677e-006  7.0610316e-008            
9.5968011e-006  7.2373908e-008            
9.7967344e-006  7.3851206e-008            
9.9966678e-006  7.5070328e-008            
1.0196601e-005  7.6343507e-008            
1.0396534e-005  7.7721985e-008            
1.0596468e-005  7.9380894e-008            
1.0796401e-005  8.0792003e-008            
1.0996335e-005  8.1898378e-008            
1.1196268e-005  8.3069803e-008            
1.1396201e-005  8.4105592e-008            
1.1596135e-005  8.5409199e-008            
1.1796068e-005  8.6715074e-008            
1.1996001e-005  8.8030461e-008            
1.2195935e-005  8.9126041e-008            
1.2395868e-005  9.0169762e-008            
1.2595801e-005  9.0886473e-008            
1.2795735e-005  9.1981576e-008            
1.2995668e-005  9.3199717e-008            
1.3195601e-005  9.4236205e-008            
1.3395535e-005  9.51444e-008            
1.3595468e-005  9.5837623e-008            
1.3795402e-005  9.672647e-008            
1.3995335e-005  9.7672727e-008            
1.4195268e-005  9.8614063e-008            
1.4395202e-005  9.9514036e-008            
1.4595135e-005  1.0025618e-007            
1.4795068e-005  1.0101379e-007            
1.4995002e-005  1.0175641e-007            
1.5194935e-005  1.0250026e-007            
1.5394868e-005  1.0351158e-007            
1.5594802e-005  1.0449036e-007            
1.5794735e-005  1.0532067e-007            
1.5994668e-005  1.0595232e-007            
1.6194602e-005  1.0618554e-007            
1.6394535e-005  1.0683268e-007            
1.6594469e-005  1.076977e-007            
1.6794402e-005  1.0861132e-007            
1.6994335e-005  1.0923438e-007            
1.7194269e-005  1.0949229e-007            
1.7394202e-005  1.0994573e-007            
1.7594135e-005  1.1031586e-007            
1.7794069e-005  1.1095334e-007            
1.7994002e-005  1.1161326e-007            
1.8193935e-005  1.1219834e-007            
1.8393869e-005  1.1285996e-007            
1.8593802e-005  1.1342557e-007            
1.8793735e-005  1.1398979e-007            
1.8993669e-005  1.1494367e-007            
1.9193602e-005  1.161296e-007            
1.9393535e-005  1.1736557e-007            
1.9593469e-005  1.18662e-007            
1.9793402e-005  1.1981793e-007            
1.9993336e-005  1.2108274e-007            
2.0193269e-005  1.2274917e-007            
2.0393202e-005  1.2439079e-007            
2.0593136e-005  1.2613761e-007            
2.0793069e-005  1.2774813e-007            
2.0993002e-005  1.2942678e-007            
2.1192936e-005  1.3124817e-007            
2.1392869e-005  1.3299968e-007            
2.1592802e-005  1.3478776e-007            
2.1792736e-005  1.3677655e-007            
2.1992669e-005  1.3866131e-007            
2.2192602e-005  1.4056585e-007            
2.2392536e-005  1.4231905e-007            
2.2592469e-005  1.4416812e-007            
2.2792403e-005  1.462668e-007            
2.2992336e-005  1.4837145e-007            
2.3192269e-005  1.5051489e-007            
2.3392203e-005  1.5230211e-007            
2.3592136e-005  1.5406174e-007            
2.3792069e-005  1.5613782e-007            
2.3992003e-005  1.5793891e-007            
2.4191936e-005  1.5990235e-007            
2.4391869e-005  1.6163678e-007            
2.4591803e-005  1.636236e-007            
2.4791736e-005  1.656109e-007            
2.4991669e-005  1.6741756e-007            
2.5191603e-005  1.6905378e-007            
2.5391536e-005  1.7085586e-007            
2.5591469e-005  1.7255789e-007            
2.5791403e-005  1.7415688e-007            
2.5991336e-005  1.7553371e-007            
2.619127e-005  1.7702293e-007            
2.6391203e-005  1.787156e-007            
2.6591136e-005  1.8019254e-007            
2.679107e-005  1.8152943e-007            
2.6991003e-005  1.8279549e-007            
2.7190936e-005  1.8402644e-007            
2.739087e-005  1.8561519e-007            
2.7590803e-005  1.86872e-007            
2.7790736e-005  1.8819147e-007            
2.799067e-005  1.893063e-007            
2.8190603e-005  1.9042318e-007            
2.8390536e-005  1.9156772e-007            
2.859047e-005  1.9287608e-007            
2.8790403e-005  1.9378934e-007            
2.8990337e-005  1.9493074e-007            
2.919027e-005  1.9600165e-007            
2.9390203e-005  1.970326e-007            
2.9590137e-005  1.981369e-007            
2.979007e-005  1.9924228e-007            
2.9990003e-005  2.0041005e-007            
3.0189937e-005  2.015061e-007            
3.038987e-005  2.0234305e-007            
3.0589803e-005  2.0310895e-007            
3.0789737e-005  2.0395026e-007            
3.098967e-005  2.0495601e-007            
3.1189603e-005  2.0600327e-007            
3.1389537e-005  2.0705705e-007            
3.158947e-005  2.0788433e-007            
3.1789404e-005  2.0881147e-007            
3.1989337e-005  2.0963865e-007            
3.218927e-005  2.105858e-007            
3.2389204e-005  2.1154167e-007            
3.2589137e-005  2.1238652e-007            
3.278907e-005  2.1315365e-007            
3.2989004e-005  2.1384361e-007            
3.3188937e-005  2.1470606e-007            
3.338887e-005  2.1557619e-007            
3.3588804e-005  2.1646016e-007            
3.3788737e-005  2.171708e-007            
3.398867e-005  2.1779695e-007            
3.4188604e-005  2.1864338e-007            
3.4388537e-005  2.1945847e-007            
3.458847e-005  2.2034059e-007            
3.4788404e-005  2.2111299e-007            
3.4988337e-005  2.2190855e-007            
3.5188271e-005  2.2267208e-007            
3.5388204e-005  2.2349833e-007            
3.5588137e-005  2.2413714e-007            
3.5788071e-005  2.2484406e-007            
3.5988004e-005  2.2553053e-007            
3.6187937e-005  2.2608246e-007            
3.6387871e-005  2.2676268e-007            
3.6587804e-005  2.2737124e-007            
3.6787737e-005  2.2805304e-007            
3.6987671e-005  2.2869049e-007            
3.7187604e-005  2.2911977e-007            
3.7387537e-005  2.2953747e-007            
3.7587471e-005  2.3004204e-007            
3.7787404e-005  2.304872e-007            
3.7987338e-005  2.3097438e-007            
3.8187271e-005  2.3140375e-007            
3.8387204e-005  2.3182411e-007            
3.8587138e-005  2.3231704e-007            
3.8787071e-005  2.3266743e-007            
3.8987004e-005  2.3305091e-007            
3.9186938e-005  2.3337484e-007            
3.9386871e-005  2.3376548e-007            
3.9586804e-005  2.3421805e-007            
3.9786738e-005  2.3438664e-007            
3.9986671e-005  2.3466702e-007            
4.0186604e-005  2.3463004e-007            
4.0386538e-005  2.3485861e-007            
4.0586471e-005  2.352105e-007            
4.0786405e-005  2.3542054e-007            
4.0986338e-005  2.3564151e-007            
4.1186271e-005  2.3590238e-007            
4.1386205e-005  2.3600718e-007            
4.1586138e-005  2.3606353e-007            
4.1786071e-005  2.3621924e-007            
4.1986005e-005  2.3638855e-007            
4.2185938e-005  2.3676187e-007            
4.2385871e-005  2.368654e-007            
4.2585805e-005  2.3686532e-007            
4.2785738e-005  2.3673272e-007            
4.2985671e-005  2.3686119e-007            
4.3185605e-005  2.371589e-007            
4.3385538e-005  2.3734917e-007            
4.3585471e-005  2.3717427e-007            
4.3785405e-005  2.37079e-007            
4.3985338e-005  2.3698416e-007            
4.4185272e-005  2.3688756e-007            
4.4385205e-005  2.3684809e-007            
4.4585138e-005  2.3669966e-007            
4.4785072e-005  2.3688235e-007            
4.4985005e-005  2.3680252e-007            
4.5184938e-005  2.3664917e-007            
4.5384872e-005  2.365157e-007            
4.5584805e-005  2.3645643e-007            
4.5784738e-005  2.3670366e-007            
4.5984672e-005  2.3657549e-007            
4.6184605e-005  2.3630872e-007            
4.6384538e-005  2.3600471e-007            
4.6584472e-005  2.3577448e-007            
4.6784405e-005  2.3572961e-007            
4.6984339e-005  2.3553597e-007            
4.7184272e-005  2.3534518e-007            
4.7384205e-005  2.3510461e-007            
4.7584139e-005  2.3480251e-007            
4.7784072e-005  2.3450193e-007            
4.7984005e-005  2.3415709e-007            
4.8183939e-005  2.3402604e-007            
4.8383872e-005  2.3390945e-007            
4.8583805e-005  2.3357363e-007            
4.8783739e-005  2.3310178e-007            
4.8983672e-005  2.3270453e-007            
4.9183605e-005  2.3263996e-007            
4.9383539e-005  2.3246487e-007            
4.9583472e-005  2.3215109e-007            
4.9783406e-005  2.3173024e-007            
4.9983339e-005  2.3140793e-007            
5.0183272e-005  2.3108202e-007            
5.0383206e-005  2.3083803e-007            
5.0583139e-005  2.3042592e-007            
5.0783072e-005  2.3020177e-007            
5.0983006e-005  2.2997153e-007            
5.1182939e-005  2.2974176e-007            
5.1382872e-005  2.2933583e-007            
5.1582806e-005  2.2916819e-007            
5.1782739e-005  2.2893109e-007            
5.1982672e-005  2.2877069e-007            
5.2182606e-005  2.283613e-007            
5.2382539e-005  2.2793526e-007            
5.2582472e-005  2.2788464e-007            
5.2782406e-005  2.2782641e-007            
5.2982339e-005  2.2745399e-007            
5.3182273e-005  2.2729781e-007            
5.3382206e-005  2.2716533e-007            
5.3582139e-005  2.2705379e-007            
5.3782073e-005  2.2677713e-007            
5.3982006e-005  2.2653739e-007            
5.4181939e-005  2.2647745e-007            
5.4381873e-005  2.2641196e-007            
5.4581806e-005  2.262464e-007            
5.4781739e-005  2.2611205e-007            
5.4981673e-005  2.2598403e-007            
5.5181606e-005  2.2612987e-007            
5.5381539e-005  2.2601014e-007            
5.5581473e-005  2.2590221e-007            
5.5781406e-005  2.2570265e-007            
5.598134e-005  2.2587572e-007            
5.6181273e-005  2.2584033e-007            
5.6381206e-005  2.2558267e-007            
5.658114e-005  2.251562e-007            
5.6781073e-005  2.2504726e-007            
5.6981006e-005  2.2501721e-007            
5.718094e-005  2.2481446e-007            
5.7380873e-005  2.2460013e-007            
5.7580806e-005  2.2418055e-007            
5.778074e-005  2.2394315e-007            
5.7980673e-005  2.2375636e-007            
5.8180606e-005  2.234935e-007            
5.838054e-005  2.2330758e-007            
5.8580473e-005  2.2290736e-007            
5.8780407e-005  2.2262891e-007            
5.898034e-005  2.2208976e-007            
5.9180273e-005  2.2157253e-007            
5.9380207e-005  2.2145784e-007            
5.958014e-005  2.2112489e-007            
5.9780073e-005  2.2059003e-007            
5.9980007e-005  2.2025368e-007            
6.017994e-005  2.1966444e-007            
6.0379873e-005  2.1948768e-007            
6.0579807e-005  2.1927137e-007            
6.077974e-005  2.1892083e-007            
6.0979673e-005  2.187003e-007            
6.1179607e-005  2.1838401e-007            
6.137954e-005  2.1778972e-007            
6.1579473e-005  2.1754706e-007            
6.1779407e-005  2.1716091e-007            
6.197934e-005  2.1697706e-007            
6.2179274e-005  2.1665765e-007            
6.2379207e-005  2.1616924e-007            
6.257914e-005  2.1554122e-007            
6.2779074e-005  2.1515119e-007            
6.2979007e-005  2.1485391e-007            
6.317894e-005  2.1473044e-007            
6.3378874e-005  2.1431577e-007            
6.3578807e-005  2.1368691e-007            
6.377874e-005  2.1314707e-007            
6.3978674e-005  2.1302371e-007            
6.4178607e-005  2.1282129e-007            
6.437854e-005  2.1241451e-007            
6.4578474e-005  2.1197119e-007            
6.4778407e-005  2.1182757e-007            
6.4978341e-005  2.1151819e-007            
6.5178274e-005  2.1135388e-007            
6.5378207e-005  2.1090365e-007            
6.5578141e-005  2.1086843e-007            
6.5778074e-005  2.1084638e-007            
6.5978007e-005  2.1072464e-007            
6.6177941e-005  2.1044372e-007            
6.6377874e-005  2.1021882e-007            
6.6577807e-005  2.1004208e-007            
6.6777741e-005  2.1021626e-007            
6.6977674e-005  2.1020376e-007            
6.7177607e-005  2.1011769e-007            
6.7377541e-005  2.0991399e-007            
6.7577474e-005  2.0976054e-007            
6.7777407e-005  2.0989541e-007            
6.7977341e-005  2.0989037e-007            
6.8177274e-005  2.0976615e-007            
6.8377208e-005  2.0985721e-007            
6.8577141e-005  2.1008566e-007            
6.8777074e-005  2.1005259e-007            
6.8977008e-005  2.09953e-007            
6.9176941e-005  2.0975688e-007            
6.9376874e-005  2.0982637e-007            
6.9576808e-005  2.0995853e-007            
6.9776741e-005  2.0983104e-007            
6.9976674e-005  2.0971038e-007            
7.0176608e-005  2.0970838e-007            
7.0376541e-005  2.0971226e-007            
7.0576474e-005  2.0971332e-007            
7.0776408e-005  2.0965144e-007            
7.0976341e-005  2.0979226e-007            
7.1176275e-005  2.0974259e-007            
7.1376208e-005  2.0983968e-007            
7.1576141e-005  2.0980221e-007            
7.1776075e-005  2.0978829e-007            
7.1976008e-005  2.0997595e-007            
7.2175941e-005  2.0988994e-007            
7.2375875e-005  2.0993915e-007            
7.2575808e-005  2.0990827e-007            
7.2775741e-005  2.1002982e-007            
7.2975675e-005  2.1030527e-007            
7.3175608e-005  2.1027701e-007            
7.3375541e-005  2.1005946e-007            
7.3575475e-005  2.1005249e-007            
7.3775408e-005  2.1025784e-007            
7.3975342e-005  2.1028231e-007            
7.4175275e-005  2.1017516e-007            
7.4375208e-005  2.0991532e-007            
7.4575142e-005  2.0991733e-007            
7.4775075e-005  2.0996272e-007            
7.4975008e-005  2.0950082e-007            
7.5174942e-005  2.09163e-007            
7.5374875e-005  2.0888084e-007            
7.5574808e-005  2.0890102e-007            
7.5774742e-005  2.0884186e-007            
7.5974675e-005  2.0840231e-007            
7.6174608e-005  2.0796889e-007            
7.6374542e-005  2.078887e-007            
7.6574475e-005  2.0780983e-007            
7.6774408e-005  2.0756772e-007            
7.6974342e-005  2.0699859e-007            
7.7174275e-005  2.0653307e-007            
7.7374209e-005  2.0621773e-007            
7.7574142e-005  2.0574732e-007            
7.7774075e-005  2.0532872e-007            
7.7974009e-005  2.0486512e-007            
7.8173942e-005  2.0458279e-007            
7.8373875e-005  2.0425126e-007            
7.8573809e-005  2.0400292e-007            
7.8773742e-005  2.0374634e-007            
7.8973675e-005  2.0351397e-007            
7.9173609e-005  2.0326525e-007            
7.9373542e-005  2.0302869e-007            
7.9573475e-005  2.0266209e-007            
7.9773409e-005  2.0216792e-007            
7.9973342e-005  2.0183455e-007            
8.0173276e-005  2.0134691e-007            
8.0373209e-005  2.0111006e-007            
8.0573142e-005  2.0078049e-007            
8.0773076e-005  2.0035021e-007            
8.0973009e-005  2.0003871e-007            
8.1172942e-005  1.9937832e-007            
8.1372876e-005  1.9883253e-007            
8.1572809e-005  1.9827873e-007            
8.1772742e-005  1.9752767e-007            
8.1972676e-005  1.9688128e-007            
8.2172609e-005  1.963581e-007            
8.2372542e-005  1.9581425e-007            
8.2572476e-005  1.9542135e-007            
8.2772409e-005  1.9478034e-007            
8.2972343e-005  1.9408311e-007            
8.3172276e-005  1.9352685e-007            
8.3372209e-005  1.9305497e-007            
8.3572143e-005  1.9254805e-007            
8.3772076e-005  1.9190046e-007            
8.3972009e-005  1.9111078e-007            
8.4171943e-005  1.9040033e-007            
8.4371876e-005  1.8982453e-007            
8.4571809e-005  1.8913632e-007            
8.4771743e-005  1.8835567e-007            
8.4971676e-005  1.8750261e-007            
8.5171609e-005  1.8668774e-007            
8.5371543e-005  1.8586496e-007            
8.5571476e-005  1.8511753e-007            
8.5771409e-005  1.8443495e-007            
8.5971343e-005  1.8387982e-007            
8.6171276e-005  1.8329404e-007            
8.637121e-005  1.8248061e-007            
8.6571143e-005  1.8163351e-007            
8.6771076e-005  1.8093208e-007            
8.697101e-005  1.8023122e-007            
8.7170943e-005  1.7956971e-007            
8.7370876e-005  1.7894709e-007            
8.757081e-005  1.7818003e-007            
8.7770743e-005  1.7728995e-007            
8.7970676e-005  1.764614e-007            
8.817061e-005  1.7589313e-007            
8.8370543e-005  1.7564035e-007            
8.8570476e-005  1.7505379e-007            
8.877041e-005  1.7432107e-007            
8.8970343e-005  1.7326013e-007            
8.9170277e-005  1.7240657e-007            
8.937021e-005  1.7180912e-007            
8.9570143e-005  1.712259e-007            
8.9770077e-005  1.7054988e-007            
8.997001e-005  1.6982633e-007            
9.0169943e-005  1.6909681e-007            
9.0369877e-005  1.6844578e-007            
9.056981e-005  1.6774163e-007            
9.0769743e-005  1.6706848e-007            
9.0969677e-005  1.6652097e-007            
9.116961e-005  1.6588442e-007            
9.1369543e-005  1.6499865e-007            
9.1569477e-005  1.6402884e-007            
9.176941e-005  1.6312798e-007            
9.1969344e-005  1.6238204e-007            
9.2169277e-005  1.6169613e-007            
9.236921e-005  1.6095281e-007            
9.2569144e-005  1.6015305e-007            
9.2769077e-005  1.5902817e-007            
