Surface Profile             
x       y           
[m]     [m]         
0  -2.3889186e-009            
1.9993336e-007  -3.2804028e-009            
3.9986671e-007  -3.9271492e-009            
5.9980007e-007  -4.4593232e-009            
7.9973342e-007  -5.0014368e-009            
9.9966678e-007  -5.3273342e-009            
1.1996001e-006  -5.5995882e-009            
1.3995335e-006  -5.9105069e-009            
1.5994668e-006  -6.2984652e-009            
1.7994002e-006  -6.7183027e-009            
1.9993336e-006  -7.1126069e-009            
2.1992669e-006  -7.5166423e-009            
2.3992003e-006  -8.0051414e-009            
2.5991336e-006  -8.3657655e-009            
2.799067e-006  -8.7160987e-009            
2.9990003e-006  -9.132938e-009            
3.1989337e-006  -9.7950357e-009            
3.398867e-006  -1.0265183e-008            
3.5988004e-006  -1.068292e-008            
3.7987338e-006  -1.1101325e-008            
3.9986671e-006  -1.1425248e-008            
4.1986005e-006  -1.2139355e-008            
4.3985338e-006  -1.2702877e-008            
4.5984672e-006  -1.3251146e-008            
4.7984005e-006  -1.3746683e-008            
4.9983339e-006  -1.4113306e-008            
5.1982672e-006  -1.4635598e-008            
5.3982006e-006  -1.5167947e-008            
5.598134e-006  -1.561505e-008            
5.7980673e-006  -1.6187098e-008            
5.9980007e-006  -1.6632278e-008            
6.197934e-006  -1.7028518e-008            
6.3978674e-006  -1.746332e-008            
6.5978007e-006  -1.7873892e-008            
6.7977341e-006  -1.8559712e-008            
6.9976674e-006  -1.9228948e-008            
7.1976008e-006  -1.9623151e-008            
7.3975342e-006  -1.9987164e-008            
7.5974675e-006  -2.0392012e-008            
7.7974009e-006  -2.1001276e-008            
7.9973342e-006  -2.1677982e-008            
8.1972676e-006  -2.2250433e-008            
8.3972009e-006  -2.2646446e-008            
8.5971343e-006  -2.3089502e-008            
8.7970676e-006  -2.3593191e-008            
8.997001e-006  -2.4189821e-008            
9.1969344e-006  -2.4806987e-008            
9.3968677e-006  -2.5378021e-008            
9.5968011e-006  -2.6152845e-008            
9.7967344e-006  -2.6774836e-008            
9.9966678e-006  -2.7344161e-008            
1.0196601e-005  -2.8195184e-008            
1.0396534e-005  -2.9082702e-008            
1.0596468e-005  -3.0098071e-008            
1.0796401e-005  -3.0760926e-008            
1.0996335e-005  -3.1462399e-008            
1.1196268e-005  -3.2192042e-008            
1.1396201e-005  -3.3090984e-008            
1.1596135e-005  -3.4065102e-008            
1.1796068e-005  -3.4940055e-008            
1.1996001e-005  -3.5672957e-008            
1.2195935e-005  -3.6516121e-008            
1.2395868e-005  -3.7466796e-008            
1.2595801e-005  -3.8584564e-008            
1.2795735e-005  -3.9737052e-008            
1.2995668e-005  -4.077179e-008            
1.3195601e-005  -4.1762261e-008            
1.3395535e-005  -4.2641868e-008            
1.3595468e-005  -4.3768268e-008            
1.3795402e-005  -4.4967383e-008            
1.3995335e-005  -4.6221979e-008            
1.4195268e-005  -4.745964e-008            
1.4395202e-005  -4.8758446e-008            
1.4595135e-005  -4.9913929e-008            
1.4795068e-005  -5.1146735e-008            
1.4995002e-005  -5.2472606e-008            
1.5194935e-005  -5.3870117e-008            
1.5394868e-005  -5.5351885e-008            
1.5594802e-005  -5.6540213e-008            
1.5794735e-005  -5.7666617e-008            
1.5994668e-005  -5.8922976e-008            
1.6194602e-005  -6.024973e-008            
1.6394535e-005  -6.1739968e-008            
1.6594469e-005  -6.3073976e-008            
1.6794402e-005  -6.4289995e-008            
1.6994335e-005  -6.5439549e-008            
1.7194269e-005  -6.6766892e-008            
1.7394202e-005  -6.8102536e-008            
1.7594135e-005  -6.958065e-008            
1.7794069e-005  -7.095892e-008            
1.7994002e-005  -7.2304805e-008            
1.8193935e-005  -7.3554058e-008            
1.8393869e-005  -7.4994053e-008            
1.8593802e-005  -7.6460396e-008            
1.8793735e-005  -7.8110977e-008            
1.8993669e-005  -7.9805035e-008            
1.9193602e-005  -8.1400096e-008            
1.9393535e-005  -8.2783923e-008            
1.9593469e-005  -8.4485372e-008            
1.9793402e-005  -8.6049899e-008            
1.9993336e-005  -8.776714e-008            
2.0193269e-005  -8.9335889e-008            
2.0393202e-005  -9.1118939e-008            
2.0593136e-005  -9.2808038e-008            
2.0793069e-005  -9.4429551e-008            
2.0993002e-005  -9.6069065e-008            
2.1192936e-005  -9.7837113e-008            
2.1392869e-005  -9.9729594e-008            
2.1592802e-005  -1.0162106e-007            
2.1792736e-005  -1.034201e-007            
2.1992669e-005  -1.04947e-007            
2.2192602e-005  -1.0676453e-007            
2.2392536e-005  -1.086788e-007            
2.2592469e-005  -1.1064859e-007            
2.2792403e-005  -1.1242269e-007            
2.2992336e-005  -1.1421666e-007            
2.3192269e-005  -1.1616917e-007            
2.3392203e-005  -1.1803186e-007            
2.3592136e-005  -1.1984342e-007            
2.3792069e-005  -1.2168042e-007            
2.3992003e-005  -1.2369365e-007            
2.4191936e-005  -1.2583688e-007            
2.4391869e-005  -1.2772522e-007            
2.4591803e-005  -1.2957703e-007            
2.4791736e-005  -1.3146431e-007            
2.4991669e-005  -1.335104e-007            
2.5191603e-005  -1.3558958e-007            
2.5391536e-005  -1.3747374e-007            
2.5591469e-005  -1.390875e-007            
2.5791403e-005  -1.4100177e-007            
2.5991336e-005  -1.4284645e-007            
2.619127e-005  -1.4477995e-007            
2.6391203e-005  -1.4663801e-007            
2.6591136e-005  -1.4830098e-007            
2.679107e-005  -1.5022455e-007            
2.6991003e-005  -1.5191813e-007            
2.7190936e-005  -1.5368791e-007            
2.739087e-005  -1.5554866e-007            
2.7590803e-005  -1.5728549e-007            
2.7790736e-005  -1.5900504e-007            
2.799067e-005  -1.6073289e-007            
2.8190603e-005  -1.6234515e-007            
2.8390536e-005  -1.641671e-007            
2.859047e-005  -1.6599153e-007            
2.8790403e-005  -1.6791286e-007            
2.8990337e-005  -1.6979135e-007            
2.919027e-005  -1.7159373e-007            
2.9390203e-005  -1.7341217e-007            
2.9590137e-005  -1.7531189e-007            
2.979007e-005  -1.7745642e-007            
2.9990003e-005  -1.7947259e-007            
3.0189937e-005  -1.8123784e-007            
3.038987e-005  -1.8296776e-007            
3.0589803e-005  -1.8480435e-007            
3.0789737e-005  -1.8678851e-007            
3.098967e-005  -1.8873743e-007            
3.1189603e-005  -1.9075267e-007            
3.1389537e-005  -1.9246013e-007            
3.158947e-005  -1.9433977e-007            
3.1789404e-005  -1.9602764e-007            
3.1989337e-005  -1.9784168e-007            
3.218927e-005  -1.9979528e-007            
3.2389204e-005  -2.0192214e-007            
3.2589137e-005  -2.0371693e-007            
3.278907e-005  -2.053585e-007            
3.2989004e-005  -2.0717164e-007            
3.3188937e-005  -2.0928571e-007            
3.338887e-005  -2.1121436e-007            
3.3588804e-005  -2.1313267e-007            
3.3788737e-005  -2.1498323e-007            
3.398867e-005  -2.1674987e-007            
3.4188604e-005  -2.187362e-007            
3.4388537e-005  -2.205167e-007            
3.458847e-005  -2.2228305e-007            
3.4788404e-005  -2.2422046e-007            
3.4988337e-005  -2.2591377e-007            
3.5188271e-005  -2.2762957e-007            
3.5388204e-005  -2.2938441e-007            
3.5588137e-005  -2.3112876e-007            
3.5788071e-005  -2.3309163e-007            
3.5988004e-005  -2.347759e-007            
3.6187937e-005  -2.3636192e-007            
3.6387871e-005  -2.3785496e-007            
3.6587804e-005  -2.3953108e-007            
3.6787737e-005  -2.4108049e-007            
3.6987671e-005  -2.4268101e-007            
3.7187604e-005  -2.4416422e-007            
3.7387537e-005  -2.4554439e-007            
3.7587471e-005  -2.4702895e-007            
3.7787404e-005  -2.4867908e-007            
3.7987338e-005  -2.5037454e-007            
3.8187271e-005  -2.5201444e-007            
3.8387204e-005  -2.5364886e-007            
3.8587138e-005  -2.5524129e-007            
3.8787071e-005  -2.570311e-007            
3.8987004e-005  -2.5872954e-007            
3.9186938e-005  -2.6053243e-007            
3.9386871e-005  -2.6231362e-007            
3.9586804e-005  -2.6414233e-007            
3.9786738e-005  -2.6572231e-007            
3.9986671e-005  -2.6749929e-007            
4.0186604e-005  -2.6911157e-007            
4.0386538e-005  -2.7072631e-007            
4.0586471e-005  -2.7240075e-007            
4.0786405e-005  -2.7395781e-007            
4.0986338e-005  -2.757048e-007            
4.1186271e-005  -2.7748656e-007            
4.1386205e-005  -2.7901223e-007            
4.1586138e-005  -2.8078406e-007            
4.1786071e-005  -2.8236398e-007            
4.1986005e-005  -2.8404259e-007            
4.2185938e-005  -2.8572728e-007            
4.2385871e-005  -2.874325e-007            
4.2585805e-005  -2.8914373e-007            
4.2785738e-005  -2.9083721e-007            
4.2985671e-005  -2.9261321e-007            
4.3185605e-005  -2.944934e-007            
4.3385538e-005  -2.9632247e-007            
4.3585471e-005  -2.9826615e-007            
4.3785405e-005  -3.0010777e-007            
4.3985338e-005  -3.0213304e-007            
4.4185272e-005  -3.0420587e-007            
4.4385205e-005  -3.0626918e-007            
4.4585138e-005  -3.0831458e-007            
4.4785072e-005  -3.1037704e-007            
4.4985005e-005  -3.1229147e-007            
4.5184938e-005  -3.1440351e-007            
4.5384872e-005  -3.1640755e-007            
4.5584805e-005  -3.185971e-007            
4.5784738e-005  -3.2074387e-007            
4.5984672e-005  -3.2275147e-007            
4.6184605e-005  -3.248746e-007            
4.6384538e-005  -3.2702111e-007            
4.6584472e-005  -3.2919321e-007            
4.6784405e-005  -3.3149427e-007            
4.6984339e-005  -3.3370224e-007            
4.7184272e-005  -3.3579464e-007            
4.7384205e-005  -3.3805528e-007            
4.7584139e-005  -3.4018734e-007            
4.7784072e-005  -3.4267835e-007            
4.7984005e-005  -3.4524916e-007            
4.8183939e-005  -3.4758689e-007            
4.8383872e-005  -3.5013999e-007            
4.8583805e-005  -3.5248827e-007            
4.8783739e-005  -3.5492243e-007            
4.8983672e-005  -3.5765496e-007            
4.9183605e-005  -3.6018792e-007            
4.9383539e-005  -3.6274677e-007            
4.9583472e-005  -3.6531526e-007            
4.9783406e-005  -3.6784453e-007            
4.9983339e-005  -3.703464e-007            
5.0183272e-005  -3.7278473e-007            
5.0383206e-005  -3.7522758e-007            
5.0583139e-005  -3.7779849e-007            
5.0783072e-005  -3.8019347e-007            
5.0983006e-005  -3.8256029e-007            
5.1182939e-005  -3.8495772e-007            
5.1382872e-005  -3.874054e-007            
5.1582806e-005  -3.8992993e-007            
5.1782739e-005  -3.9245185e-007            
5.1982672e-005  -3.9499916e-007            
5.2182606e-005  -3.9731681e-007            
5.2382539e-005  -3.9972136e-007            
5.2582472e-005  -4.0236263e-007            
5.2782406e-005  -4.0506938e-007            
5.2982339e-005  -4.0750385e-007            
5.3182273e-005  -4.100607e-007            
5.3382206e-005  -4.1268507e-007            
5.3582139e-005  -4.1555752e-007            
5.3782073e-005  -4.1825163e-007            
5.3982006e-005  -4.2091545e-007            
5.4181939e-005  -4.2376013e-007            
5.4381873e-005  -4.2647905e-007            
5.4581806e-005  -4.2919209e-007            
5.4781739e-005  -4.3181316e-007            
5.4981673e-005  -4.3444827e-007            
5.5181606e-005  -4.3736928e-007            
5.5381539e-005  -4.4007012e-007            
5.5581473e-005  -4.4262809e-007            
5.5781406e-005  -4.4498606e-007            
5.598134e-005  -4.4741552e-007            
5.6181273e-005  -4.5007963e-007            
5.6381206e-005  -4.5273815e-007            
5.658114e-005  -4.5521621e-007            
5.6781073e-005  -4.5791016e-007            
5.6981006e-005  -4.6038237e-007            
5.718094e-005  -4.630368e-007            
5.7380873e-005  -4.6573122e-007            
5.7580806e-005  -4.6834175e-007            
5.778074e-005  -4.7099768e-007            
5.7980673e-005  -4.7364169e-007            
5.8180606e-005  -4.7634752e-007            
5.838054e-005  -4.7897723e-007            
5.8580473e-005  -4.8171578e-007            
5.8780407e-005  -4.8443679e-007            
5.898034e-005  -4.8718813e-007            
5.9180273e-005  -4.9007681e-007            
5.9380207e-005  -4.9269466e-007            
5.958014e-005  -4.9539593e-007            
5.9780073e-005  -4.9816324e-007            
5.9980007e-005  -5.0086065e-007            
6.017994e-005  -5.0317684e-007            
6.0379873e-005  -5.0556271e-007            
6.0579807e-005  -5.0805748e-007            
6.077974e-005  -5.1057181e-007            
6.0979673e-005  -5.132408e-007            
6.1179607e-005  -5.1553354e-007            
6.137954e-005  -5.1796705e-007            
6.1579473e-005  -5.2054114e-007            
6.1779407e-005  -5.2303063e-007            
6.197934e-005  -5.2534472e-007            
6.2179274e-005  -5.2766596e-007            
6.2379207e-005  -5.3002757e-007            
6.257914e-005  -5.3264638e-007            
6.2779074e-005  -5.349112e-007            
6.2979007e-005  -5.3740683e-007            
6.317894e-005  -5.4000724e-007            
6.3378874e-005  -5.4256019e-007            
6.3578807e-005  -5.4519283e-007            
6.377874e-005  -5.4743631e-007            
6.3978674e-005  -5.5000024e-007            
6.4178607e-005  -5.5280391e-007            
6.437854e-005  -5.5545853e-007            
6.4578474e-005  -5.5801907e-007            
6.4778407e-005  -5.6045067e-007            
6.4978341e-005  -5.6302139e-007            
6.5178274e-005  -5.6589526e-007            
6.5378207e-005  -5.6852381e-007            
6.5578141e-005  -5.7100362e-007            
6.5778074e-005  -5.7358362e-007            
6.5978007e-005  -5.7633097e-007            
6.6177941e-005  -5.7903216e-007            
6.6377874e-005  -5.8173937e-007            
6.6577807e-005  -5.844488e-007            
6.6777741e-005  -5.873317e-007            
6.6977674e-005  -5.9019501e-007            
6.7177607e-005  -5.9306253e-007            
6.7377541e-005  -5.9583177e-007            
6.7577474e-005  -5.9887273e-007            
6.7777407e-005  -6.0206468e-007            
6.7977341e-005  -6.0521953e-007            
6.8177274e-005  -6.0832503e-007            
6.8377208e-005  -6.1163851e-007            
6.8577141e-005  -6.1490204e-007            
6.8777074e-005  -6.1831384e-007            
6.8977008e-005  -6.2175082e-007            
6.9176941e-005  -6.2498034e-007            
6.9376874e-005  -6.2836143e-007            
6.9576808e-005  -6.3182956e-007            
6.9776741e-005  -6.352899e-007            
6.9976674e-005  -6.3878552e-007            
7.0176608e-005  -6.4205614e-007            
7.0376541e-005  -6.454524e-007            
7.0576474e-005  -6.4893264e-007            
7.0776408e-005  -6.5236488e-007            
7.0976341e-005  -6.5583617e-007            
7.1176275e-005  -6.5925494e-007            
7.1376208e-005  -6.6269269e-007            
7.1576141e-005  -6.6608494e-007            
7.1776075e-005  -6.6946017e-007            
7.1976008e-005  -6.7302404e-007            
7.2175941e-005  -6.7663592e-007            
7.2375875e-005  -6.8031467e-007            
7.2575808e-005  -6.8389201e-007            
7.2775741e-005  -6.8736833e-007            
7.2975675e-005  -6.909127e-007            
7.3175608e-005  -6.9469783e-007            
7.3375541e-005  -6.983179e-007            
7.3575475e-005  -7.0179803e-007            
7.3775408e-005  -7.0517393e-007            
7.3975342e-005  -7.0855015e-007            
7.4175275e-005  -7.1205489e-007            
7.4375208e-005  -7.1540375e-007            
7.4575142e-005  -7.1857419e-007            
7.4775075e-005  -7.217225e-007            
7.4975008e-005  -7.2498063e-007            
7.5174942e-005  -7.2795699e-007            
7.5374875e-005  -7.306874e-007            
7.5574808e-005  -7.3342696e-007            
7.5774742e-005  -7.3622868e-007            
7.5974675e-005  -7.3902871e-007            
7.6174608e-005  -7.4152289e-007            
7.6374542e-005  -7.4374337e-007            
7.6574475e-005  -7.4616872e-007            
7.6774408e-005  -7.4881062e-007            
7.6974342e-005  -7.512517e-007            
7.7174275e-005  -7.5364498e-007            
7.7374209e-005  -7.5585623e-007            
7.7574142e-005  -7.5807569e-007            
7.7774075e-005  -7.6029701e-007            
7.7974009e-005  -7.6226418e-007            
7.8173942e-005  -7.6435939e-007            
7.8373875e-005  -7.6628516e-007            
7.8573809e-005  -7.6802799e-007            
7.8773742e-005  -7.6986799e-007            
7.8973675e-005  -7.7145131e-007            
7.9173609e-005  -7.7323868e-007            
7.9373542e-005  -7.7495942e-007            
7.9573475e-005  -7.764077e-007            
7.9773409e-005  -7.7779807e-007            
7.9973342e-005  -7.7923769e-007            
8.0173276e-005  -7.8064884e-007            
8.0373209e-005  -7.8220961e-007            
8.0573142e-005  -7.8340225e-007            
8.0773076e-005  -7.8462392e-007            
8.0973009e-005  -7.8587679e-007            
8.1172942e-005  -7.8691507e-007            
8.1372876e-005  -7.8792814e-007            
8.1572809e-005  -7.8903601e-007            
8.1772742e-005  -7.9008174e-007            
8.1972676e-005  -7.9120434e-007            
8.2172609e-005  -7.9222808e-007            
8.2372542e-005  -7.9296981e-007            
8.2572476e-005  -7.9391211e-007            
8.2772409e-005  -7.9484739e-007            
8.2972343e-005  -7.9585403e-007            
8.3172276e-005  -7.965171e-007            
8.3372209e-005  -7.9720956e-007            
8.3572143e-005  -7.9780618e-007            
8.3772076e-005  -7.9831105e-007            
8.3972009e-005  -7.9878417e-007            
8.4171943e-005  -7.9914632e-007            
8.4371876e-005  -7.9974424e-007            
8.4571809e-005  -8.0009158e-007            
8.4771743e-005  -8.0036563e-007            
8.4971676e-005  -8.0075782e-007            
8.5171609e-005  -8.009936e-007            
8.5371543e-005  -8.0095281e-007            
8.5571476e-005  -8.0120744e-007            
8.5771409e-005  -8.0149906e-007            
8.5971343e-005  -8.0156714e-007            
8.6171276e-005  -8.0161548e-007            
8.637121e-005  -8.0163543e-007            
8.6571143e-005  -8.0181831e-007            
8.6771076e-005  -8.0175039e-007            
8.697101e-005  -8.0176677e-007            
8.7170943e-005  -8.0181832e-007            
8.7370876e-005  -8.0153252e-007            
8.757081e-005  -8.0090108e-007            
8.7770743e-005  -8.0075119e-007            
8.7970676e-005  -8.0053164e-007            
8.817061e-005  -8.0025684e-007            
8.8370543e-005  -7.9970171e-007            
8.8570476e-005  -7.9895323e-007            
8.877041e-005  -7.9842402e-007            
8.8970343e-005  -7.9793614e-007            
8.9170277e-005  -7.9757853e-007            
8.937021e-005  -7.9712857e-007            
8.9570143e-005  -7.9657823e-007            
8.9770077e-005  -7.9607948e-007            
8.997001e-005  -7.9557837e-007            
9.0169943e-005  -7.9492693e-007            
9.0369877e-005  -7.9442559e-007            
9.056981e-005  -7.9408687e-007            
9.0769743e-005  -7.9382895e-007            
