Surface Profile             
x       y           
[m]     [m]         
0  2.9699984e-009            
1.9993336e-007  3.6771229e-009            
3.9986671e-007  4.1355936e-009            
5.9980007e-007  4.7632223e-009            
7.9973342e-007  5.2095963e-009            
9.9966678e-007  5.4844107e-009            
1.1996001e-006  6.1157337e-009            
1.3995335e-006  6.8243103e-009            
1.5994668e-006  7.4424552e-009            
1.7994002e-006  8.0002196e-009            
1.9993336e-006  8.3884418e-009            
2.1992669e-006  8.7758424e-009            
2.3992003e-006  9.3863746e-009            
2.5991336e-006  1.0142976e-008            
2.799067e-006  1.0773864e-008            
2.9990003e-006  1.1134357e-008            
3.1989337e-006  1.1569135e-008            
3.398867e-006  1.2022383e-008            
3.5988004e-006  1.3071143e-008            
3.7987338e-006  1.3738687e-008            
3.9986671e-006  1.4110696e-008            
4.1986005e-006  1.4536595e-008            
4.3985338e-006  1.4989736e-008            
4.5984672e-006  1.5622172e-008            
4.7984005e-006  1.6275712e-008            
4.9983339e-006  1.6777969e-008            
5.1982672e-006  1.7402465e-008            
5.3982006e-006  1.7830915e-008            
5.598134e-006  1.8174689e-008            
5.7980673e-006  1.8648372e-008            
5.9980007e-006  1.9112322e-008            
6.197934e-006  1.9710927e-008            
6.3978674e-006  2.0129784e-008            
6.5978007e-006  2.011846e-008            
6.7977341e-006  2.0356944e-008            
6.9976674e-006  2.0766784e-008            
7.1976008e-006  2.1208246e-008            
7.3975342e-006  2.1528398e-008            
7.5974675e-006  2.1583114e-008            
7.7974009e-006  2.1695877e-008            
7.9973342e-006  2.1961539e-008            
8.1972676e-006  2.222234e-008            
8.3972009e-006  2.2428342e-008            
8.5971343e-006  2.2669447e-008            
8.7970676e-006  2.277278e-008            
8.997001e-006  2.279794e-008            
9.1969344e-006  2.2753607e-008            
9.3968677e-006  2.2562182e-008            
9.5968011e-006  2.2760813e-008            
9.7967344e-006  2.290596e-008            
9.9966678e-006  2.2977135e-008            
1.0196601e-005  2.2604228e-008            
1.0396534e-005  2.255554e-008            
1.0596468e-005  2.2586747e-008            
1.0796401e-005  2.2823123e-008            
1.0996335e-005  2.3052616e-008            
1.1196268e-005  2.2975581e-008            
1.1396201e-005  2.2885097e-008            
1.1596135e-005  2.2760752e-008            
1.1796068e-005  2.2564706e-008            
1.1996001e-005  2.2415312e-008            
1.2195935e-005  2.2465798e-008            
1.2395868e-005  2.2355892e-008            
1.2595801e-005  2.2384776e-008            
1.2795735e-005  2.2098485e-008            
1.2995668e-005  2.1940216e-008            
1.3195601e-005  2.1922411e-008            
1.3395535e-005  2.1932005e-008            
1.3595468e-005  2.2108645e-008            
1.3795402e-005  2.1857735e-008            
1.3995335e-005  2.142476e-008            
1.4195268e-005  2.118013e-008            
1.4395202e-005  2.0977143e-008            
1.4595135e-005  2.1041709e-008            
1.4795068e-005  2.1095141e-008            
1.4995002e-005  2.0942489e-008            
1.5194935e-005  2.0768233e-008            
1.5394868e-005  2.0526953e-008            
1.5594802e-005  2.0469147e-008            
1.5794735e-005  2.0623162e-008            
1.5994668e-005  2.0647554e-008            
1.6194602e-005  2.0464874e-008            
1.6394535e-005  2.0296485e-008            
1.6594469e-005  2.0003557e-008            
1.6794402e-005  2.0046971e-008            
1.6994335e-005  2.0249859e-008            
1.7194269e-005  2.0358225e-008            
1.7394202e-005  2.0361781e-008            
1.7594135e-005  2.0156878e-008            
1.7794069e-005  1.9975703e-008            
1.7994002e-005  2.0055312e-008            
1.8193935e-005  2.0019862e-008            
1.8393869e-005  2.0149807e-008            
1.8593802e-005  2.0021756e-008            
1.8793735e-005  1.9956698e-008            
1.8993669e-005  1.9852929e-008            
1.9193602e-005  1.9945733e-008            
1.9393535e-005  2.0272649e-008            
1.9593469e-005  2.0385604e-008            
1.9793402e-005  2.0200498e-008            
1.9993336e-005  1.9796483e-008            
2.0193269e-005  1.9450523e-008            
2.0393202e-005  1.9443529e-008            
2.0593136e-005  1.9497699e-008            
2.0793069e-005  1.9481428e-008            
2.0993002e-005  1.9430109e-008            
2.1192936e-005  1.9067655e-008            
2.1392869e-005  1.878272e-008            
2.1592802e-005  1.8615759e-008            
2.1792736e-005  1.8527207e-008            
2.1992669e-005  1.8436619e-008            
2.2192602e-005  1.800343e-008            
2.2392536e-005  1.7519892e-008            
2.2592469e-005  1.7126212e-008            
2.2792403e-005  1.6818338e-008            
2.2992336e-005  1.6662012e-008            
2.3192269e-005  1.6234877e-008            
2.3392203e-005  1.5563574e-008            
2.3592136e-005  1.4898551e-008            
2.3792069e-005  1.4262136e-008            
2.3992003e-005  1.3633676e-008            
2.4191936e-005  1.3151116e-008            
2.4391869e-005  1.2685235e-008            
2.4591803e-005  1.1985858e-008            
2.4791736e-005  1.1140571e-008            
2.4991669e-005  1.0283673e-008            
2.5191603e-005  9.891517e-009            
2.5391536e-005  9.5479487e-009            
2.5591469e-005  8.9749692e-009            
2.5791403e-005  8.197392e-009            
2.5991336e-005  7.2777113e-009            
2.619127e-005  6.6188143e-009            
2.6391203e-005  5.9591716e-009            
2.6591136e-005  5.3145047e-009            
2.679107e-005  4.43653e-009            
2.6991003e-005  3.6791128e-009            
2.7190936e-005  2.954192e-009            
2.739087e-005  2.1352616e-009            
2.7590803e-005  1.2866667e-009            
2.7790736e-005  7.4190092e-010            
2.799067e-005  1.9202993e-010            
2.8190603e-005  -4.371877e-010            
2.8390536e-005  -1.3901188e-009            
2.859047e-005  -2.3839521e-009            
2.8790403e-005  -2.902351e-009            
2.8990337e-005  -3.2568989e-009            
2.919027e-005  -3.9459744e-009            
2.9390203e-005  -4.7928325e-009            
2.9590137e-005  -5.7664294e-009            
2.979007e-005  -6.5161625e-009            
2.9990003e-005  -7.1824318e-009            
3.0189937e-005  -7.8106208e-009            
3.038987e-005  -8.4337702e-009            
3.0589803e-005  -9.0792143e-009            
3.0789737e-005  -9.6941313e-009            
3.098967e-005  -1.0509809e-008            
3.1189603e-005  -1.1341979e-008            
3.1389537e-005  -1.2015178e-008            
3.158947e-005  -1.2569907e-008            
3.1789404e-005  -1.3374916e-008            
3.1989337e-005  -1.4235603e-008            
3.218927e-005  -1.534755e-008            
3.2389204e-005  -1.6180164e-008            
3.2589137e-005  -1.6821206e-008            
3.278907e-005  -1.7817401e-008            
3.2989004e-005  -1.8789441e-008            
3.3188937e-005  -1.9841706e-008            
3.338887e-005  -2.0885239e-008            
3.3588804e-005  -2.1815891e-008            
3.3788737e-005  -2.2746223e-008            
3.398867e-005  -2.3696951e-008            
3.4188604e-005  -2.4415692e-008            
3.4388537e-005  -2.5403353e-008            
3.458847e-005  -2.6522313e-008            
3.4788404e-005  -2.7595035e-008            
3.4988337e-005  -2.8476797e-008            
3.5188271e-005  -2.9211376e-008            
3.5388204e-005  -3.0202162e-008            
3.5588137e-005  -3.1167365e-008            
3.5788071e-005  -3.2305458e-008            
3.5988004e-005  -3.3327471e-008            
3.6187937e-005  -3.4047827e-008            
3.6387871e-005  -3.4903655e-008            
3.6587804e-005  -3.5812818e-008            
3.6787737e-005  -3.6875795e-008            
3.6987671e-005  -3.7972709e-008            
3.7187604e-005  -3.8992233e-008            
3.7387537e-005  -3.9923199e-008            
3.7587471e-005  -4.0791778e-008            
3.7787404e-005  -4.1671971e-008            
3.7987338e-005  -4.270291e-008            
3.8187271e-005  -4.3726482e-008            
3.8387204e-005  -4.474756e-008            
3.8587138e-005  -4.5609319e-008            
3.8787071e-005  -4.6512735e-008            
3.8987004e-005  -4.7465321e-008            
3.9186938e-005  -4.8480826e-008            
3.9386871e-005  -4.9508053e-008            
3.9586804e-005  -5.0564227e-008            
3.9786738e-005  -5.1414275e-008            
3.9986671e-005  -5.2222413e-008            
4.0186604e-005  -5.322917e-008            
4.0386538e-005  -5.4319487e-008            
4.0586471e-005  -5.5647915e-008            
4.0786405e-005  -5.6751426e-008            
4.0986338e-005  -5.7642944e-008            
4.1186271e-005  -5.8700154e-008            
4.1386205e-005  -5.9785878e-008            
4.1586138e-005  -6.0965126e-008            
4.1786071e-005  -6.2198146e-008            
4.1986005e-005  -6.3429169e-008            
4.2185938e-005  -6.457112e-008            
4.2385871e-005  -6.5613063e-008            
4.2585805e-005  -6.663589e-008            
4.2785738e-005  -6.7943116e-008            
4.2985671e-005  -6.9329657e-008            
4.3185605e-005  -7.0805716e-008            
4.3385538e-005  -7.2092242e-008            
4.3585471e-005  -7.3293368e-008            
4.3785405e-005  -7.4627555e-008            
4.3985338e-005  -7.618308e-008            
4.4185272e-005  -7.7821462e-008            
4.4385205e-005  -7.9276789e-008            
4.4585138e-005  -8.0434295e-008            
4.4785072e-005  -8.1624616e-008            
4.4985005e-005  -8.2874717e-008            
4.5184938e-005  -8.4341007e-008            
4.5384872e-005  -8.5888065e-008            
4.5584805e-005  -8.7150703e-008            
4.5784738e-005  -8.8543651e-008            
4.5984672e-005  -8.9910208e-008            
4.6184605e-005  -9.1064993e-008            
4.6384538e-005  -9.2465788e-008            
4.6584472e-005  -9.3868419e-008            
4.6784405e-005  -9.5396726e-008            
4.6984339e-005  -9.6684263e-008            
4.7184272e-005  -9.7805594e-008            
4.7384205e-005  -9.8943905e-008            
4.7584139e-005  -1.0038405e-007            
4.7784072e-005  -1.0170506e-007            
4.7984005e-005  -1.0300681e-007            
4.8183939e-005  -1.0396185e-007            
4.8383872e-005  -1.0513294e-007            
4.8583805e-005  -1.0647327e-007            
4.8783739e-005  -1.0786795e-007            
4.8983672e-005  -1.0912791e-007            
4.9183605e-005  -1.103864e-007            
4.9383539e-005  -1.1166367e-007            
4.9583472e-005  -1.129293e-007            
4.9783406e-005  -1.1411067e-007            
4.9983339e-005  -1.1543066e-007            
5.0183272e-005  -1.1670884e-007            
5.0383206e-005  -1.1810187e-007            
5.0583139e-005  -1.1932288e-007            
5.0783072e-005  -1.2039742e-007            
5.0983006e-005  -1.2150909e-007            
5.1182939e-005  -1.2294385e-007            
5.1382872e-005  -1.2434169e-007            
5.1582806e-005  -1.2574788e-007            
5.1782739e-005  -1.2698578e-007            
5.1982672e-005  -1.2845927e-007            
5.2182606e-005  -1.3000287e-007            
5.2382539e-005  -1.3125368e-007            
5.2582472e-005  -1.3259113e-007            
5.2782406e-005  -1.3398782e-007            
5.2982339e-005  -1.3558372e-007            
5.3182273e-005  -1.3712759e-007            
5.3382206e-005  -1.3859077e-007            
5.3582139e-005  -1.3985881e-007            
5.3782073e-005  -1.4147603e-007            
5.3982006e-005  -1.4310207e-007            
5.4181939e-005  -1.4468856e-007            
5.4381873e-005  -1.4618712e-007            
5.4581806e-005  -1.4765463e-007            
5.4781739e-005  -1.4926591e-007            
5.4981673e-005  -1.5094233e-007            
5.5181606e-005  -1.5241262e-007            
5.5381539e-005  -1.5389214e-007            
5.5581473e-005  -1.5548919e-007            
5.5781406e-005  -1.5706767e-007            
5.598134e-005  -1.5857605e-007            
5.6181273e-005  -1.6005603e-007            
5.6381206e-005  -1.617058e-007            
5.658114e-005  -1.6344855e-007            
5.6781073e-005  -1.6505312e-007            
5.6981006e-005  -1.665284e-007            
5.718094e-005  -1.678535e-007            
5.7380873e-005  -1.6964738e-007            
5.7580806e-005  -1.7136438e-007            
5.778074e-005  -1.7289513e-007            
5.7980673e-005  -1.7445197e-007            
5.8180606e-005  -1.758219e-007            
5.838054e-005  -1.7747227e-007            
5.8580473e-005  -1.7908647e-007            
5.8780407e-005  -1.8063449e-007            
5.898034e-005  -1.8207005e-007            
5.9180273e-005  -1.8343503e-007            
5.9380207e-005  -1.8509592e-007            
5.958014e-005  -1.8655768e-007            
5.9780073e-005  -1.8801903e-007            
5.9980007e-005  -1.8969168e-007            
6.017994e-005  -1.9135846e-007            
6.0379873e-005  -1.9284963e-007            
6.0579807e-005  -1.9443514e-007            
6.077974e-005  -1.9586649e-007            
6.0979673e-005  -1.9757001e-007            
6.1179607e-005  -1.9940903e-007            
6.137954e-005  -2.0097331e-007            
6.1579473e-005  -2.0238601e-007            
6.1779407e-005  -2.0386202e-007            
6.197934e-005  -2.0531966e-007            
6.2179274e-005  -2.0708734e-007            
6.2379207e-005  -2.0874652e-007            
6.257914e-005  -2.1014145e-007            
6.2779074e-005  -2.1163313e-007            
6.2979007e-005  -2.1289643e-007            
6.317894e-005  -2.1426053e-007            
6.3378874e-005  -2.1569968e-007            
6.3578807e-005  -2.1714746e-007            
6.377874e-005  -2.1847018e-007            
6.3978674e-005  -2.195553e-007            
6.4178607e-005  -2.2062648e-007            
6.437854e-005  -2.2176975e-007            
6.4578474e-005  -2.2315037e-007            
6.4778407e-005  -2.244564e-007            
6.4978341e-005  -2.255526e-007            
6.5178274e-005  -2.2673755e-007            
6.5378207e-005  -2.276928e-007            
6.5578141e-005  -2.2887831e-007            
6.5778074e-005  -2.3008444e-007            
6.5978007e-005  -2.3138955e-007            
6.6177941e-005  -2.3248266e-007            
6.6377874e-005  -2.3356686e-007            
6.6577807e-005  -2.346156e-007            
6.6777741e-005  -2.357143e-007            
6.6977674e-005  -2.3693853e-007            
6.7177607e-005  -2.380829e-007            
6.7377541e-005  -2.3927879e-007            
6.7577474e-005  -2.4025495e-007            
6.7777407e-005  -2.4116485e-007            
6.7977341e-005  -2.4224693e-007            
6.8177274e-005  -2.4341588e-007            
6.8377208e-005  -2.4446223e-007            
6.8577141e-005  -2.4541758e-007            
6.8777074e-005  -2.461519e-007            
6.8977008e-005  -2.4712409e-007            
6.9176941e-005  -2.4825625e-007            
6.9376874e-005  -2.4940122e-007            
6.9576808e-005  -2.5048125e-007            
6.9776741e-005  -2.5143785e-007            
6.9976674e-005  -2.5243045e-007            
7.0176608e-005  -2.535231e-007            
7.0376541e-005  -2.5465304e-007            
7.0576474e-005  -2.5578062e-007            
7.0776408e-005  -2.5660026e-007            
7.0976341e-005  -2.5761428e-007            
7.1176275e-005  -2.5852165e-007            
7.1376208e-005  -2.5950791e-007            
7.1576141e-005  -2.6061184e-007            
7.1776075e-005  -2.6156973e-007            
7.1976008e-005  -2.6257772e-007            
7.2175941e-005  -2.6373876e-007            
7.2375875e-005  -2.6457107e-007            
7.2575808e-005  -2.6551036e-007            
7.2775741e-005  -2.6650357e-007            
7.2975675e-005  -2.674983e-007            
7.3175608e-005  -2.6858921e-007            
7.3375541e-005  -2.6937043e-007            
7.3575475e-005  -2.7019388e-007            
7.3775408e-005  -2.7107477e-007            
7.3975342e-005  -2.7196299e-007            
7.4175275e-005  -2.7278384e-007            
7.4375208e-005  -2.7355496e-007            
7.4575142e-005  -2.7422894e-007            
7.4775075e-005  -2.7513007e-007            
7.4975008e-005  -2.7584561e-007            
7.5174942e-005  -2.7666108e-007            
7.5374875e-005  -2.7755718e-007            
7.5574808e-005  -2.7844491e-007            
7.5774742e-005  -2.7941216e-007            
7.5974675e-005  -2.8027239e-007            
7.6174608e-005  -2.8104923e-007            
7.6374542e-005  -2.8194772e-007            
7.6574475e-005  -2.8275995e-007            
7.6774408e-005  -2.8369579e-007            
7.6974342e-005  -2.8467227e-007            
7.7174275e-005  -2.8560599e-007            
7.7374209e-005  -2.8633903e-007            
7.7574142e-005  -2.8701263e-007            
7.7774075e-005  -2.8781203e-007            
7.7974009e-005  -2.8858909e-007            
7.8173942e-005  -2.8923735e-007            
7.8373875e-005  -2.8999789e-007            
7.8573809e-005  -2.9071224e-007            
7.8773742e-005  -2.9126534e-007            
7.8973675e-005  -2.9197299e-007            
7.9173609e-005  -2.9252829e-007            
7.9373542e-005  -2.9329427e-007            
7.9573475e-005  -2.9399901e-007            
7.9773409e-005  -2.9460892e-007            
7.9973342e-005  -2.9514376e-007            
8.0173276e-005  -2.9558649e-007            
8.0373209e-005  -2.9617605e-007            
8.0573142e-005  -2.9679623e-007            
8.0773076e-005  -2.9716507e-007            
8.0973009e-005  -2.9746683e-007            
8.1172942e-005  -2.9770901e-007            
8.1372876e-005  -2.9788258e-007            
8.1572809e-005  -2.9814352e-007            
8.1772742e-005  -2.9831267e-007            
8.1972676e-005  -2.9850696e-007            
8.2172609e-005  -2.9874409e-007            
8.2372542e-005  -2.9872201e-007            
8.2572476e-005  -2.9878745e-007            
8.2772409e-005  -2.9866192e-007            
8.2972343e-005  -2.9867164e-007            
8.3172276e-005  -2.9880747e-007            
8.3372209e-005  -2.9877492e-007            
8.3572143e-005  -2.9853622e-007            
8.3772076e-005  -2.9852288e-007            
8.3972009e-005  -2.9858614e-007            
8.4171943e-005  -2.985486e-007            
8.4371876e-005  -2.9848007e-007            
8.4571809e-005  -2.9829222e-007            
8.4771743e-005  -2.9831488e-007            
8.4971676e-005  -2.9813049e-007            
8.5171609e-005  -2.9785781e-007            
8.5371543e-005  -2.9761947e-007            
8.5571476e-005  -2.9743071e-007            
8.5771409e-005  -2.9720055e-007            
8.5971343e-005  -2.9688367e-007            
8.6171276e-005  -2.9669038e-007            
8.637121e-005  -2.9630548e-007            
8.6571143e-005  -2.9600679e-007            
8.6771076e-005  -2.9573937e-007            
8.697101e-005  -2.9522006e-007            
8.7170943e-005  -2.9478702e-007            
8.7370876e-005  -2.9451933e-007            
8.757081e-005  -2.9432447e-007            
8.7770743e-005  -2.9400467e-007            
8.7970676e-005  -2.9376364e-007            
8.817061e-005  -2.9332374e-007            
8.8370543e-005  -2.9301352e-007            
8.8570476e-005  -2.9271602e-007            
8.877041e-005  -2.9233655e-007            
8.8970343e-005  -2.9204569e-007            
8.9170277e-005  -2.9157223e-007            
8.937021e-005  -2.9120008e-007            
8.9570143e-005  -2.908877e-007            
8.9770077e-005  -2.9057385e-007            
8.997001e-005  -2.9026202e-007            
9.0169943e-005  -2.8995398e-007            
9.0369877e-005  -2.8949799e-007            
9.056981e-005  -2.8903798e-007            
9.0769743e-005  -2.8853407e-007            
9.0969677e-005  -2.8807786e-007            
9.116961e-005  -2.8765957e-007            
9.1369543e-005  -2.8719243e-007            
