Surface Profile             
x       y           
[m]     [m]         
0  -2.6523791e-009            
1.9993336e-007  -3.9108067e-009            
3.9986671e-007  -5.1540867e-009            
5.9980007e-007  -5.9822944e-009            
7.9973342e-007  -7.073393e-009            
9.9966678e-007  -7.5289571e-009            
1.1996001e-006  -8.080764e-009            
1.3995335e-006  -8.8354794e-009            
1.5994668e-006  -9.5765865e-009            
1.7994002e-006  -1.028594e-008            
1.9993336e-006  -1.0853552e-008            
2.1992669e-006  -1.1262858e-008            
2.3992003e-006  -1.2058354e-008            
2.5991336e-006  -1.2977833e-008            
2.799067e-006  -1.3856127e-008            
2.9990003e-006  -1.4627774e-008            
3.1989337e-006  -1.5150252e-008            
3.398867e-006  -1.5933584e-008            
3.5988004e-006  -1.6760598e-008            
3.7987338e-006  -1.7518162e-008            
3.9986671e-006  -1.8385028e-008            
4.1986005e-006  -1.9177376e-008            
4.3985338e-006  -2.0102614e-008            
4.5984672e-006  -2.0784829e-008            
4.7984005e-006  -2.136283e-008            
4.9983339e-006  -2.2197715e-008            
5.1982672e-006  -2.3320553e-008            
5.3982006e-006  -2.4183896e-008            
5.598134e-006  -2.4965852e-008            
5.7980673e-006  -2.5750024e-008            
5.9980007e-006  -2.6857819e-008            
6.197934e-006  -2.7985993e-008            
6.3978674e-006  -2.8737797e-008            
6.5978007e-006  -2.9501417e-008            
6.7977341e-006  -3.0395189e-008            
6.9976674e-006  -3.1373025e-008            
7.1976008e-006  -3.2299083e-008            
7.3975342e-006  -3.2963001e-008            
7.5974675e-006  -3.3680403e-008            
7.7974009e-006  -3.4682932e-008            
7.9973342e-006  -3.5534748e-008            
8.1972676e-006  -3.645236e-008            
8.3972009e-006  -3.7274117e-008            
8.5971343e-006  -3.8220425e-008            
8.7970676e-006  -3.9293437e-008            
8.997001e-006  -3.9978237e-008            
9.1969344e-006  -4.0761935e-008            
9.3968677e-006  -4.153529e-008            
9.5968011e-006  -4.2740026e-008            
9.7967344e-006  -4.3796903e-008            
9.9966678e-006  -4.4343357e-008            
1.0196601e-005  -4.4996958e-008            
1.0396534e-005  -4.5867541e-008            
1.0596468e-005  -4.6859516e-008            
1.0796401e-005  -4.7777832e-008            
1.0996335e-005  -4.8409203e-008            
1.1196268e-005  -4.897576e-008            
1.1396201e-005  -4.960833e-008            
1.1596135e-005  -5.0349498e-008            
1.1796068e-005  -5.0969855e-008            
1.1996001e-005  -5.172873e-008            
1.2195935e-005  -5.241103e-008            
1.2395868e-005  -5.3106103e-008            
1.2595801e-005  -5.3653162e-008            
1.2795735e-005  -5.4003169e-008            
1.2995668e-005  -5.4534275e-008            
1.3195601e-005  -5.5155967e-008            
1.3395535e-005  -5.5782817e-008            
1.3595468e-005  -5.6138378e-008            
1.3795402e-005  -5.6516157e-008            
1.3995335e-005  -5.6900216e-008            
1.4195268e-005  -5.7260017e-008            
1.4395202e-005  -5.7693382e-008            
1.4595135e-005  -5.8071729e-008            
1.4795068e-005  -5.8329934e-008            
1.4995002e-005  -5.8383907e-008            
1.5194935e-005  -5.8613259e-008            
1.5394868e-005  -5.8724445e-008            
1.5594802e-005  -5.8908294e-008            
1.5794735e-005  -5.8801552e-008            
1.5994668e-005  -5.8749478e-008            
1.6194602e-005  -5.8586346e-008            
1.6394535e-005  -5.8405665e-008            
1.6594469e-005  -5.8283647e-008            
1.6794402e-005  -5.8169167e-008            
1.6994335e-005  -5.8133503e-008            
1.7194269e-005  -5.7835747e-008            
1.7394202e-005  -5.736681e-008            
1.7594135e-005  -5.693668e-008            
1.7794069e-005  -5.6439101e-008            
1.7994002e-005  -5.6037513e-008            
1.8193935e-005  -5.559027e-008            
1.8393869e-005  -5.486393e-008            
1.8593802e-005  -5.4408771e-008            
1.8793735e-005  -5.3820799e-008            
1.8993669e-005  -5.3021031e-008            
1.9193602e-005  -5.2182047e-008            
1.9393535e-005  -5.1427362e-008            
1.9593469e-005  -5.0616138e-008            
1.9793402e-005  -4.9733351e-008            
1.9993336e-005  -4.8573501e-008            
2.0193269e-005  -4.7596126e-008            
2.0393202e-005  -4.6835857e-008            
2.0593136e-005  -4.5881232e-008            
2.0793069e-005  -4.476116e-008            
2.0993002e-005  -4.3627146e-008            
2.1192936e-005  -4.2425102e-008            
2.1392869e-005  -4.1353904e-008            
2.1592802e-005  -4.0043992e-008            
2.1792736e-005  -3.8676153e-008            
2.1992669e-005  -3.7312638e-008            
2.2192602e-005  -3.5975407e-008            
2.2392536e-005  -3.4631238e-008            
2.2592469e-005  -3.3119364e-008            
2.2792403e-005  -3.1551749e-008            
2.2992336e-005  -3.0089114e-008            
2.3192269e-005  -2.8464509e-008            
2.3392203e-005  -2.6798909e-008            
2.3592136e-005  -2.5038709e-008            
2.3792069e-005  -2.3325096e-008            
2.3992003e-005  -2.1611279e-008            
2.4191936e-005  -1.9817736e-008            
2.4391869e-005  -1.7968945e-008            
2.4591803e-005  -1.5963124e-008            
2.4791736e-005  -1.4229176e-008            
2.4991669e-005  -1.2495783e-008            
2.5191603e-005  -1.0902839e-008            
2.5391536e-005  -9.2273182e-009            
2.5591469e-005  -7.4297865e-009            
2.5791403e-005  -5.2161114e-009            
2.5991336e-005  -2.8668904e-009            
2.619127e-005  -7.4289435e-010            
2.6391203e-005  9.7475973e-010            
2.6591136e-005  2.6881512e-009            
2.679107e-005  4.7287162e-009            
2.6991003e-005  6.9589796e-009            
2.7190936e-005  9.1775689e-009            
2.739087e-005  1.1405726e-008            
2.7590803e-005  1.3475414e-008            
2.7790736e-005  1.5538853e-008            
2.799067e-005  1.7731927e-008            
2.8190603e-005  1.9835106e-008            
2.8390536e-005  2.2311532e-008            
2.859047e-005  2.4863212e-008            
2.8790403e-005  2.7258646e-008            
2.8990337e-005  2.9478731e-008            
2.919027e-005  3.1508879e-008            
2.9390203e-005  3.3786131e-008            
2.9590137e-005  3.6503543e-008            
2.979007e-005  3.9112448e-008            
2.9990003e-005  4.1272111e-008            
3.0189937e-005  4.3326951e-008            
3.038987e-005  4.5724474e-008            
3.0589803e-005  4.8375904e-008            
3.0789737e-005  5.0880362e-008            
3.098967e-005  5.3328387e-008            
3.1189603e-005  5.5658377e-008            
3.1389537e-005  5.7967322e-008            
3.158947e-005  6.0381943e-008            
3.1789404e-005  6.2643739e-008            
3.1989337e-005  6.5139664e-008            
3.218927e-005  6.7584373e-008            
3.2389204e-005  7.006605e-008            
3.2589137e-005  7.2333627e-008            
3.278907e-005  7.45657e-008            
3.2989004e-005  7.7191254e-008            
3.3188937e-005  7.9876316e-008            
3.338887e-005  8.2494268e-008            
3.3588804e-005  8.4975793e-008            
3.3788737e-005  8.7560883e-008            
3.398867e-005  9.0240791e-008            
3.4188604e-005  9.3077536e-008            
3.4388537e-005  9.5645862e-008            
3.458847e-005  9.8112408e-008            
3.4788404e-005  1.0052115e-007            
3.4988337e-005  1.0299505e-007            
3.5188271e-005  1.0549689e-007            
3.5388204e-005  1.0787065e-007            
3.5588137e-005  1.1017946e-007            
3.5788071e-005  1.1283707e-007            
3.5988004e-005  1.1516699e-007            
3.6187937e-005  1.1722223e-007            
3.6387871e-005  1.1933195e-007            
3.6587804e-005  1.2156631e-007            
3.6787737e-005  1.2390789e-007            
3.6987671e-005  1.2602495e-007            
3.7187604e-005  1.2771308e-007            
3.7387537e-005  1.2969026e-007            
3.7587471e-005  1.3193412e-007            
3.7787404e-005  1.3417191e-007            
3.7987338e-005  1.362004e-007            
3.8187271e-005  1.3795799e-007            
3.8387204e-005  1.3993646e-007            
3.8587138e-005  1.4194053e-007            
3.8787071e-005  1.4359545e-007            
3.8987004e-005  1.4542022e-007            
3.9186938e-005  1.4726145e-007            
3.9386871e-005  1.4926747e-007            
3.9586804e-005  1.5081006e-007            
3.9786738e-005  1.5225938e-007            
3.9986671e-005  1.5397387e-007            
4.0186604e-005  1.5580356e-007            
4.0386538e-005  1.5749477e-007            
4.0586471e-005  1.5905974e-007            
4.0786405e-005  1.6037766e-007            
4.0986338e-005  1.6194768e-007            
4.1186271e-005  1.6341757e-007            
4.1386205e-005  1.6489529e-007            
4.1586138e-005  1.6637169e-007            
4.1786071e-005  1.6781571e-007            
4.1986005e-005  1.6929812e-007            
4.2185938e-005  1.7059659e-007            
4.2385871e-005  1.7188326e-007            
4.2585805e-005  1.7334999e-007            
4.2785738e-005  1.7485857e-007            
4.2985671e-005  1.7639756e-007            
4.3185605e-005  1.777171e-007            
4.3385538e-005  1.7875008e-007            
4.3585471e-005  1.8005641e-007            
4.3785405e-005  1.814086e-007            
4.3985338e-005  1.8264072e-007            
4.4185272e-005  1.8389935e-007            
4.4385205e-005  1.8508459e-007            
4.4585138e-005  1.8630933e-007            
4.4785072e-005  1.874469e-007            
4.4985005e-005  1.8851996e-007            
4.5184938e-005  1.8991097e-007            
4.5384872e-005  1.9121851e-007            
4.5584805e-005  1.9245677e-007            
4.5784738e-005  1.93514e-007            
4.5984672e-005  1.945391e-007            
4.6184605e-005  1.9569235e-007            
4.6384538e-005  1.9698043e-007            
4.6584472e-005  1.9810312e-007            
4.6784405e-005  1.9928027e-007            
4.6984339e-005  2.0025431e-007            
4.7184272e-005  2.0133634e-007            
4.7384205e-005  2.0226101e-007            
4.7584139e-005  2.0328571e-007            
4.7784072e-005  2.0450352e-007            
4.7984005e-005  2.0561185e-007            
4.8183939e-005  2.0664182e-007            
4.8383872e-005  2.0762284e-007            
4.8583805e-005  2.0868179e-007            
4.8783739e-005  2.0977463e-007            
4.8983672e-005  2.1083992e-007            
4.9183605e-005  2.1196438e-007            
4.9383539e-005  2.1313216e-007            
4.9583472e-005  2.1411841e-007            
4.9783406e-005  2.1499141e-007            
4.9983339e-005  2.160059e-007            
5.0183272e-005  2.1703807e-007            
5.0383206e-005  2.1804866e-007            
5.0583139e-005  2.1891881e-007            
5.0783072e-005  2.1958402e-007            
5.0983006e-005  2.2081283e-007            
5.1182939e-005  2.2200662e-007            
5.1382872e-005  2.2323968e-007            
5.1582806e-005  2.2418316e-007            
5.1782739e-005  2.2511241e-007            
5.1982672e-005  2.2595021e-007            
5.2182606e-005  2.270194e-007            
5.2382539e-005  2.2824888e-007            
5.2582472e-005  2.2971075e-007            
5.2782406e-005  2.3084213e-007            
5.2982339e-005  2.3194159e-007            
5.3182273e-005  2.3296385e-007            
5.3382206e-005  2.3390562e-007            
5.3582139e-005  2.3521365e-007            
5.3782073e-005  2.3631613e-007            
5.3982006e-005  2.3755177e-007            
5.4181939e-005  2.3829519e-007            
5.4381873e-005  2.3893369e-007            
5.4581806e-005  2.3990821e-007            
5.4781739e-005  2.4071655e-007            
5.4981673e-005  2.4167771e-007            
5.5181606e-005  2.425807e-007            
5.5381539e-005  2.4320501e-007            
5.5581473e-005  2.4378353e-007            
5.5781406e-005  2.4457658e-007            
5.598134e-005  2.4556843e-007            
5.6181273e-005  2.4652234e-007            
5.6381206e-005  2.4720925e-007            
5.658114e-005  2.4771107e-007            
5.6781073e-005  2.4843383e-007            
5.6981006e-005  2.4927266e-007            
5.718094e-005  2.5017418e-007            
5.7380873e-005  2.5106385e-007            
5.7580806e-005  2.5178185e-007            
5.778074e-005  2.5217284e-007            
5.7980673e-005  2.5279964e-007            
5.8180606e-005  2.533704e-007            
5.838054e-005  2.5421655e-007            
5.8580473e-005  2.5502727e-007            
5.8780407e-005  2.5566474e-007            
5.898034e-005  2.5635021e-007            
5.9180273e-005  2.5673619e-007            
5.9380207e-005  2.573379e-007            
5.958014e-005  2.5803561e-007            
5.9780073e-005  2.5869172e-007            
5.9980007e-005  2.5931301e-007            
6.017994e-005  2.5962292e-007            
6.0379873e-005  2.6016159e-007            
6.0579807e-005  2.6053945e-007            
6.077974e-005  2.609496e-007            
6.0979673e-005  2.6147064e-007            
6.1179607e-005  2.6181088e-007            
6.137954e-005  2.6210091e-007            
6.1579473e-005  2.6208897e-007            
6.1779407e-005  2.6220081e-007            
6.197934e-005  2.6271721e-007            
6.2179274e-005  2.6313243e-007            
6.2379207e-005  2.6339162e-007            
6.257914e-005  2.636009e-007            
6.2779074e-005  2.6371504e-007            
6.2979007e-005  2.6411971e-007            
6.317894e-005  2.6452195e-007            
6.3378874e-005  2.6485226e-007            
6.3578807e-005  2.6512242e-007            
6.377874e-005  2.6550161e-007            
6.3978674e-005  2.6575484e-007            
6.4178607e-005  2.6595491e-007            
6.437854e-005  2.6621158e-007            
6.4578474e-005  2.6655353e-007            
6.4778407e-005  2.6692168e-007            
6.4978341e-005  2.6704754e-007            
6.5178274e-005  2.6701979e-007            
6.5378207e-005  2.6696524e-007            
6.5578141e-005  2.6717252e-007            
6.5778074e-005  2.6742993e-007            
6.5978007e-005  2.6763995e-007            
6.6177941e-005  2.6766345e-007            
6.6377874e-005  2.6749048e-007            
6.6577807e-005  2.6752213e-007            
6.6777741e-005  2.6781193e-007            
6.6977674e-005  2.6806697e-007            
6.7177607e-005  2.684507e-007            
6.7377541e-005  2.6843398e-007            
6.7577474e-005  2.6843836e-007            
6.7777407e-005  2.6833288e-007            
6.7977341e-005  2.6822967e-007            
6.8177274e-005  2.6825613e-007            
6.8377208e-005  2.6841382e-007            
6.8577141e-005  2.6832714e-007            
6.8777074e-005  2.6813287e-007            
6.8977008e-005  2.6781314e-007            
6.9176941e-005  2.6757178e-007            
6.9376874e-005  2.6756774e-007            
6.9576808e-005  2.6756402e-007            
6.9776741e-005  2.6746898e-007            
6.9976674e-005  2.671505e-007            
7.0176608e-005  2.6690071e-007            
7.0376541e-005  2.6677034e-007            
7.0576474e-005  2.665988e-007            
7.0776408e-005  2.6658216e-007            
7.0976341e-005  2.6630723e-007            
7.1176275e-005  2.6601412e-007            
7.1376208e-005  2.6559424e-007            
7.1576141e-005  2.6530583e-007            
7.1776075e-005  2.6510661e-007            
7.1976008e-005  2.6506487e-007            
7.2175941e-005  2.6476426e-007            
7.2375875e-005  2.6417957e-007            
7.2575808e-005  2.6368437e-007            
7.2775741e-005  2.6329476e-007            
7.2975675e-005  2.6328316e-007            
7.3175608e-005  2.6315805e-007            
7.3375541e-005  2.6291304e-007            
7.3575475e-005  2.6244093e-007            
7.3775408e-005  2.621248e-007            
7.3975342e-005  2.6197576e-007            
7.4175275e-005  2.6195171e-007            
7.4375208e-005  2.618143e-007            
7.4575142e-005  2.6183676e-007            
7.4775075e-005  2.6154747e-007            
7.4975008e-005  2.6128224e-007            
7.5174942e-005  2.6117494e-007            
7.5374875e-005  2.6103187e-007            
7.5574808e-005  2.6127143e-007            
7.5774742e-005  2.6115618e-007            
7.5974675e-005  2.6078611e-007            
7.6174608e-005  2.6066772e-007            
7.6374542e-005  2.6074416e-007            
7.6574475e-005  2.6112232e-007            
7.6774408e-005  2.6145567e-007            
7.6974342e-005  2.6161323e-007            
7.7174275e-005  2.6163397e-007            
7.7374209e-005  2.6174463e-007            
7.7574142e-005  2.6195614e-007            
7.7774075e-005  2.6248393e-007            
7.7974009e-005  2.6289149e-007            
7.8173942e-005  2.6303745e-007            
7.8373875e-005  2.6309709e-007            
7.8573809e-005  2.6312233e-007            
7.8773742e-005  2.6326172e-007            
7.8973675e-005  2.6360201e-007            
7.9173609e-005  2.6384298e-007            
7.9373542e-005  2.6386564e-007            
7.9573475e-005  2.6375451e-007            
7.9773409e-005  2.6367179e-007            
7.9973342e-005  2.6386867e-007            
8.0173276e-005  2.6394838e-007            
8.0373209e-005  2.6418445e-007            
8.0573142e-005  2.6425407e-007            
8.0773076e-005  2.6417918e-007            
8.0973009e-005  2.6404224e-007            
8.1172942e-005  2.6399292e-007            
8.1372876e-005  2.6394535e-007            
8.1572809e-005  2.6399675e-007            
8.1772742e-005  2.637125e-007            
8.1972676e-005  2.6335607e-007            
8.2172609e-005  2.6268541e-007            
8.2372542e-005  2.6236967e-007            
8.2572476e-005  2.6209593e-007            
8.2772409e-005  2.6172663e-007            
8.2972343e-005  2.6133289e-007            
8.3172276e-005  2.608289e-007            
8.3372209e-005  2.6013177e-007            
8.3572143e-005  2.5968672e-007            
8.3772076e-005  2.5904403e-007            
8.3972009e-005  2.5866267e-007            
8.4171943e-005  2.5829911e-007            
8.4371876e-005  2.5778308e-007            
8.4571809e-005  2.572295e-007            
8.4771743e-005  2.565607e-007            
8.4971676e-005  2.5619048e-007            
8.5171609e-005  2.558256e-007            
8.5371543e-005  2.553058e-007            
8.5571476e-005  2.5486985e-007            
8.5771409e-005  2.5423942e-007            
8.5971343e-005  2.5387661e-007            
8.6171276e-005  2.5349316e-007            
8.637121e-005  2.5307932e-007            
8.6571143e-005  2.5267868e-007            
8.6771076e-005  2.5241857e-007            
8.697101e-005  2.5219068e-007            
8.7170943e-005  2.5180595e-007            
8.7370876e-005  2.5140978e-007            
8.757081e-005  2.5122871e-007            
8.7770743e-005  2.5112249e-007            
8.7970676e-005  2.5077519e-007            
8.817061e-005  2.5037956e-007            
8.8370543e-005  2.4989301e-007            
8.8570476e-005  2.4964325e-007            
8.877041e-005  2.4967568e-007            
8.8970343e-005  2.4945638e-007            
8.9170277e-005  2.4913557e-007            
8.937021e-005  2.4887114e-007            
8.9570143e-005  2.485022e-007            
8.9770077e-005  2.4830228e-007            
8.997001e-005  2.4802131e-007            
9.0169943e-005  2.4765247e-007            
9.0369877e-005  2.4750017e-007            
9.056981e-005  2.4724283e-007            
9.0769743e-005  2.4669813e-007            
9.0969677e-005  2.4634296e-007            
9.116961e-005  2.4600814e-007            
9.1369543e-005  2.4609909e-007            
9.1569477e-005  2.4568363e-007            
9.176941e-005  2.4510885e-007            
9.1969344e-005  2.4457561e-007            
9.2169277e-005  2.4415265e-007            
