Surface Profile             
x       y           
[m]     [m]         
0  -4.3780622e-010            
1.9993336e-007  -1.232142e-009            
3.9986671e-007  -1.9663396e-009            
5.9980007e-007  -2.6350698e-009            
7.9973342e-007  -3.1352599e-009            
9.9966678e-007  -3.6871208e-009            
1.1996001e-006  -4.136054e-009            
1.3995335e-006  -4.4556619e-009            
1.5994668e-006  -4.9835109e-009            
1.7994002e-006  -5.4064917e-009            
1.9993336e-006  -5.9889234e-009            
2.1992669e-006  -6.8943219e-009            
2.3992003e-006  -7.5319135e-009            
2.5991336e-006  -8.1822179e-009            
2.799067e-006  -8.7312767e-009            
2.9990003e-006  -9.605777e-009            
3.1989337e-006  -1.0587327e-008            
3.398867e-006  -1.166885e-008            
3.5988004e-006  -1.2429834e-008            
3.7987338e-006  -1.3281915e-008            
3.9986671e-006  -1.4110222e-008            
4.1986005e-006  -1.5182178e-008            
4.3985338e-006  -1.6084962e-008            
4.5984672e-006  -1.7084535e-008            
4.7984005e-006  -1.8032671e-008            
4.9983339e-006  -1.8940115e-008            
5.1982672e-006  -1.9934584e-008            
5.3982006e-006  -2.090183e-008            
5.598134e-006  -2.2098038e-008            
5.7980673e-006  -2.3332591e-008            
5.9980007e-006  -2.4279642e-008            
6.197934e-006  -2.5155208e-008            
6.3978674e-006  -2.6227758e-008            
6.5978007e-006  -2.7454545e-008            
6.7977341e-006  -2.8819962e-008            
6.9976674e-006  -3.001433e-008            
7.1976008e-006  -3.097728e-008            
7.3975342e-006  -3.2182428e-008            
7.5974675e-006  -3.3496242e-008            
7.7974009e-006  -3.484737e-008            
7.9973342e-006  -3.6256172e-008            
8.1972676e-006  -3.7555989e-008            
8.3972009e-006  -3.8812381e-008            
8.5971343e-006  -3.9979434e-008            
8.7970676e-006  -4.1007659e-008            
8.997001e-006  -4.2283402e-008            
9.1969344e-006  -4.3590014e-008            
9.3968677e-006  -4.5029209e-008            
9.5968011e-006  -4.6374232e-008            
9.7967344e-006  -4.7400882e-008            
9.9966678e-006  -4.8564625e-008            
1.0196601e-005  -5.0013953e-008            
1.0396534e-005  -5.1518345e-008            
1.0596468e-005  -5.2879253e-008            
1.0796401e-005  -5.387769e-008            
1.0996335e-005  -5.4919389e-008            
1.1196268e-005  -5.6331975e-008            
1.1396201e-005  -5.7814754e-008            
1.1596135e-005  -5.9151598e-008            
1.1796068e-005  -6.0356063e-008            
1.1996001e-005  -6.1605505e-008            
1.2195935e-005  -6.2781225e-008            
1.2395868e-005  -6.3985805e-008            
1.2595801e-005  -6.5305426e-008            
1.2795735e-005  -6.6548029e-008            
1.2995668e-005  -6.7901063e-008            
1.3195601e-005  -6.9069052e-008            
1.3395535e-005  -7.0148204e-008            
1.3595468e-005  -7.121647e-008            
1.3795402e-005  -7.2680664e-008            
1.3995335e-005  -7.4047212e-008            
1.4195268e-005  -7.5283887e-008            
1.4395202e-005  -7.6346568e-008            
1.4595135e-005  -7.7345328e-008            
1.4795068e-005  -7.853567e-008            
1.4995002e-005  -7.9779238e-008            
1.5194935e-005  -8.0964884e-008            
1.5394868e-005  -8.223305e-008            
1.5594802e-005  -8.3321919e-008            
1.5794735e-005  -8.453722e-008            
1.5994668e-005  -8.567893e-008            
1.6194602e-005  -8.6886445e-008            
1.6394535e-005  -8.8426822e-008            
1.6594469e-005  -8.9676511e-008            
1.6794402e-005  -9.0959478e-008            
1.6994335e-005  -9.2273135e-008            
1.7194269e-005  -9.3692507e-008            
1.7394202e-005  -9.5359221e-008            
1.7594135e-005  -9.6682931e-008            
1.7794069e-005  -9.8087465e-008            
1.7994002e-005  -9.931843e-008            
1.8193935e-005  -1.006268e-007            
1.8393869e-005  -1.0205054e-007            
1.8593802e-005  -1.034479e-007            
1.8793735e-005  -1.0481154e-007            
1.8993669e-005  -1.0614635e-007            
1.9193602e-005  -1.0725624e-007            
1.9393535e-005  -1.0858875e-007            
1.9593469e-005  -1.0998292e-007            
1.9793402e-005  -1.1135329e-007            
1.9993336e-005  -1.1260121e-007            
2.0193269e-005  -1.1373444e-007            
2.0393202e-005  -1.1500585e-007            
2.0593136e-005  -1.1634022e-007            
2.0793069e-005  -1.1759097e-007            
2.0993002e-005  -1.1902305e-007            
2.1192936e-005  -1.2045578e-007            
2.1392869e-005  -1.2187788e-007            
2.1592802e-005  -1.2312487e-007            
2.1792736e-005  -1.2434899e-007            
2.1992669e-005  -1.2556022e-007            
2.2192602e-005  -1.27022e-007            
2.2392536e-005  -1.2830307e-007            
2.2592469e-005  -1.294752e-007            
2.2792403e-005  -1.3059375e-007            
2.2992336e-005  -1.3160133e-007            
2.3192269e-005  -1.3278146e-007            
2.3392203e-005  -1.3390433e-007            
2.3592136e-005  -1.3513417e-007            
2.3792069e-005  -1.362903e-007            
2.3992003e-005  -1.3752958e-007            
2.4191936e-005  -1.3862547e-007            
2.4391869e-005  -1.3970189e-007            
2.4591803e-005  -1.4068722e-007            
2.4791736e-005  -1.419161e-007            
2.4991669e-005  -1.4314539e-007            
2.5191603e-005  -1.4420641e-007            
2.5391536e-005  -1.4498276e-007            
2.5591469e-005  -1.45849e-007            
2.5791403e-005  -1.4692132e-007            
2.5991336e-005  -1.4799028e-007            
2.619127e-005  -1.490245e-007            
2.6391203e-005  -1.4978999e-007            
2.6591136e-005  -1.50526e-007            
2.679107e-005  -1.5141841e-007            
2.6991003e-005  -1.5221391e-007            
2.7190936e-005  -1.5320479e-007            
2.739087e-005  -1.5427761e-007            
2.7590803e-005  -1.5504922e-007            
2.7790736e-005  -1.5570312e-007            
2.799067e-005  -1.5629177e-007            
2.8190603e-005  -1.5698705e-007            
2.8390536e-005  -1.5787072e-007            
2.859047e-005  -1.5875985e-007            
2.8790403e-005  -1.5939739e-007            
2.8990337e-005  -1.5987391e-007            
2.919027e-005  -1.6034787e-007            
2.9390203e-005  -1.6124e-007            
2.9590137e-005  -1.6204928e-007            
2.979007e-005  -1.6266265e-007            
2.9990003e-005  -1.6316733e-007            
3.0189937e-005  -1.6357326e-007            
3.038987e-005  -1.6415195e-007            
3.0589803e-005  -1.648121e-007            
3.0789737e-005  -1.6533653e-007            
3.098967e-005  -1.6588965e-007            
3.1189603e-005  -1.6655471e-007            
3.1389537e-005  -1.6683496e-007            
3.158947e-005  -1.6716647e-007            
3.1789404e-005  -1.6770405e-007            
3.1989337e-005  -1.6836977e-007            
3.218927e-005  -1.693726e-007            
3.2389204e-005  -1.6985191e-007            
3.2589137e-005  -1.7005974e-007            
3.278907e-005  -1.7026644e-007            
3.2989004e-005  -1.7093271e-007            
3.3188937e-005  -1.7182251e-007            
3.338887e-005  -1.7233198e-007            
3.3588804e-005  -1.7269268e-007            
3.3788737e-005  -1.7289207e-007            
3.398867e-005  -1.7352109e-007            
3.4188604e-005  -1.7419127e-007            
3.4388537e-005  -1.7481933e-007            
3.458847e-005  -1.7548108e-007            
3.4788404e-005  -1.7630655e-007            
3.4988337e-005  -1.7685555e-007            
3.5188271e-005  -1.7737467e-007            
3.5388204e-005  -1.7783663e-007            
3.5588137e-005  -1.7866394e-007            
3.5788071e-005  -1.7987187e-007            
3.5988004e-005  -1.8055294e-007            
3.6187937e-005  -1.8114269e-007            
3.6387871e-005  -1.8171708e-007            
3.6587804e-005  -1.8255168e-007            
3.6787737e-005  -1.8363601e-007            
3.6987671e-005  -1.8439213e-007            
3.7187604e-005  -1.8495279e-007            
3.7387537e-005  -1.8564951e-007            
3.7587471e-005  -1.8650111e-007            
3.7787404e-005  -1.8736241e-007            
3.7987338e-005  -1.8823855e-007            
3.8187271e-005  -1.8903045e-007            
3.8387204e-005  -1.9004513e-007            
3.8587138e-005  -1.9071971e-007            
3.8787071e-005  -1.9126363e-007            
3.8987004e-005  -1.9208347e-007            
3.9186938e-005  -1.9300211e-007            
3.9386871e-005  -1.9392521e-007            
3.9586804e-005  -1.9466197e-007            
3.9786738e-005  -1.9518765e-007            
3.9986671e-005  -1.9598082e-007            
4.0186604e-005  -1.9690068e-007            
4.0386538e-005  -1.9802045e-007            
4.0586471e-005  -1.9873209e-007            
4.0786405e-005  -1.9947661e-007            
4.0986338e-005  -2.0039851e-007            
4.1186271e-005  -2.0128468e-007            
4.1386205e-005  -2.0218666e-007            
4.1586138e-005  -2.0309814e-007            
4.1786071e-005  -2.0398108e-007            
4.1986005e-005  -2.0512176e-007            
4.2185938e-005  -2.0606288e-007            
4.2385871e-005  -2.0699214e-007            
4.2585805e-005  -2.0802918e-007            
4.2785738e-005  -2.0881564e-007            
4.2985671e-005  -2.0991366e-007            
4.3185605e-005  -2.1084202e-007            
4.3385538e-005  -2.1160859e-007            
4.3585471e-005  -2.1258931e-007            
4.3785405e-005  -2.1349722e-007            
4.3985338e-005  -2.1441784e-007            
4.4185272e-005  -2.1537118e-007            
4.4385205e-005  -2.1614411e-007            
4.4585138e-005  -2.1694161e-007            
4.4785072e-005  -2.1785911e-007            
4.4985005e-005  -2.187749e-007            
4.5184938e-005  -2.1987277e-007            
4.5384872e-005  -2.2086584e-007            
4.5584805e-005  -2.2170949e-007            
4.5784738e-005  -2.2267196e-007            
4.5984672e-005  -2.2352077e-007            
4.6184605e-005  -2.2440031e-007            
4.6384538e-005  -2.2535694e-007            
4.6584472e-005  -2.2629855e-007            
4.6784405e-005  -2.2711578e-007            
4.6984339e-005  -2.2776196e-007            
4.7184272e-005  -2.2833287e-007            
4.7384205e-005  -2.289058e-007            
4.7584139e-005  -2.2962308e-007            
4.7784072e-005  -2.303295e-007            
4.7984005e-005  -2.3097136e-007            
4.8183939e-005  -2.3147585e-007            
4.8383872e-005  -2.3205023e-007            
4.8583805e-005  -2.3256388e-007            
4.8783739e-005  -2.3337913e-007            
4.8983672e-005  -2.3401466e-007            
4.9183605e-005  -2.346109e-007            
4.9383539e-005  -2.3517835e-007            
4.9583472e-005  -2.3587284e-007            
4.9783406e-005  -2.3648433e-007            
4.9983339e-005  -2.3704775e-007            
5.0183272e-005  -2.3771378e-007            
5.0383206e-005  -2.385017e-007            
5.0583139e-005  -2.3911798e-007            
5.0783072e-005  -2.3952832e-007            
5.0983006e-005  -2.3994697e-007            
5.1182939e-005  -2.405409e-007            
5.1382872e-005  -2.4119898e-007            
5.1582806e-005  -2.4193842e-007            
5.1782739e-005  -2.4237355e-007            
5.1982672e-005  -2.4287771e-007            
5.2182606e-005  -2.4334462e-007            
5.2382539e-005  -2.4395724e-007            
5.2582472e-005  -2.4448155e-007            
5.2782406e-005  -2.4496888e-007            
5.2982339e-005  -2.4537508e-007            
5.3182273e-005  -2.4584256e-007            
5.3382206e-005  -2.4621357e-007            
5.3582139e-005  -2.4663172e-007            
5.3782073e-005  -2.4711381e-007            
5.3982006e-005  -2.4772376e-007            
5.4181939e-005  -2.4814459e-007            
5.4381873e-005  -2.4826614e-007            
5.4581806e-005  -2.4877479e-007            
5.4781739e-005  -2.4934299e-007            
5.4981673e-005  -2.5003038e-007            
5.5181606e-005  -2.5041227e-007            
5.5381539e-005  -2.5055778e-007            
5.5581473e-005  -2.5087539e-007            
5.5781406e-005  -2.5130107e-007            
5.598134e-005  -2.5155514e-007            
5.6181273e-005  -2.5194108e-007            
5.6381206e-005  -2.5236448e-007            
5.658114e-005  -2.5274079e-007            
5.6781073e-005  -2.5309434e-007            
5.6981006e-005  -2.5326893e-007            
5.718094e-005  -2.5357829e-007            
5.7380873e-005  -2.540615e-007            
5.7580806e-005  -2.5443237e-007            
5.778074e-005  -2.546499e-007            
5.7980673e-005  -2.5472389e-007            
5.8180606e-005  -2.5502089e-007            
5.838054e-005  -2.5551614e-007            
5.8580473e-005  -2.559824e-007            
5.8780407e-005  -2.5623859e-007            
5.898034e-005  -2.5642186e-007            
5.9180273e-005  -2.5661248e-007            
5.9380207e-005  -2.5686437e-007            
5.958014e-005  -2.5718903e-007            
5.9780073e-005  -2.5734866e-007            
5.9980007e-005  -2.5751896e-007            
6.017994e-005  -2.5764245e-007            
6.0379873e-005  -2.5785434e-007            
6.0579807e-005  -2.5794573e-007            
6.077974e-005  -2.5811877e-007            
6.0979673e-005  -2.5843999e-007            
6.1179607e-005  -2.5852187e-007            
6.137954e-005  -2.5864071e-007            
6.1579473e-005  -2.5870195e-007            
6.1779407e-005  -2.5885193e-007            
6.197934e-005  -2.5917742e-007            
6.2179274e-005  -2.594113e-007            
6.2379207e-005  -2.5954093e-007            
6.257914e-005  -2.5953199e-007            
6.2779074e-005  -2.5957272e-007            
6.2979007e-005  -2.5972654e-007            
6.317894e-005  -2.6014084e-007            
6.3378874e-005  -2.6028853e-007            
6.3578807e-005  -2.6043814e-007            
6.377874e-005  -2.6035533e-007            
6.3978674e-005  -2.6046703e-007            
6.4178607e-005  -2.6043957e-007            
6.437854e-005  -2.6033257e-007            
6.4578474e-005  -2.6033616e-007            
6.4778407e-005  -2.6022686e-007            
6.4978341e-005  -2.5998752e-007            
6.5178274e-005  -2.597712e-007            
6.5378207e-005  -2.5959504e-007            
6.5578141e-005  -2.5932897e-007            
6.5778074e-005  -2.5931591e-007            
6.5978007e-005  -2.5902559e-007            
6.6177941e-005  -2.5855205e-007            
6.6377874e-005  -2.5830276e-007            
6.6577807e-005  -2.5799244e-007            
6.6777741e-005  -2.5770707e-007            
6.6977674e-005  -2.5722101e-007            
6.7177607e-005  -2.5679674e-007            
6.7377541e-005  -2.5639351e-007            
6.7577474e-005  -2.5607641e-007            
6.7777407e-005  -2.5564142e-007            
6.7977341e-005  -2.5521248e-007            
6.8177274e-005  -2.5481696e-007            
6.8377208e-005  -2.5449013e-007            
6.8577141e-005  -2.538878e-007            
6.8777074e-005  -2.532332e-007            
6.8977008e-005  -2.5266636e-007            
6.9176941e-005  -2.5222735e-007            
6.9376874e-005  -2.5180587e-007            
6.9576808e-005  -2.5108904e-007            
6.9776741e-005  -2.5039499e-007            
6.9976674e-005  -2.499381e-007            
7.0176608e-005  -2.4932782e-007            
7.0376541e-005  -2.4883959e-007            
7.0576474e-005  -2.48097e-007            
7.0776408e-005  -2.4746053e-007            
7.0976341e-005  -2.4685961e-007            
7.1176275e-005  -2.462264e-007            
7.1376208e-005  -2.456632e-007            
7.1576141e-005  -2.4500848e-007            
7.1776075e-005  -2.4437034e-007            
7.1976008e-005  -2.4388273e-007            
7.2175941e-005  -2.4328147e-007            
7.2375875e-005  -2.425394e-007            
7.2575808e-005  -2.4189471e-007            
7.2775741e-005  -2.4121945e-007            
7.2975675e-005  -2.4073604e-007            
7.3175608e-005  -2.4030161e-007            
7.3375541e-005  -2.3973051e-007            
7.3575475e-005  -2.3926354e-007            
7.3775408e-005  -2.3866271e-007            
7.3975342e-005  -2.3822308e-007            
7.4175275e-005  -2.3770679e-007            
7.4375208e-005  -2.3752537e-007            
7.4575142e-005  -2.3714709e-007            
7.4775075e-005  -2.3662238e-007            
7.4975008e-005  -2.3590822e-007            
7.5174942e-005  -2.3541341e-007            
7.5374875e-005  -2.3507036e-007            
7.5574808e-005  -2.3487622e-007            
7.5774742e-005  -2.3442901e-007            
7.5974675e-005  -2.3404997e-007            
7.6174608e-005  -2.3376026e-007            
7.6374542e-005  -2.3334077e-007            
7.6574475e-005  -2.3284065e-007            
7.6774408e-005  -2.3249989e-007            
7.6974342e-005  -2.3217521e-007            
7.7174275e-005  -2.3177402e-007            
7.7374209e-005  -2.3106204e-007            
7.7574142e-005  -2.3034147e-007            
7.7774075e-005  -2.3000417e-007            
7.7974009e-005  -2.2959132e-007            
7.8173942e-005  -2.2909315e-007            
7.8373875e-005  -2.2848251e-007            
7.8573809e-005  -2.2764529e-007            
7.8773742e-005  -2.2697314e-007            
7.8973675e-005  -2.2632011e-007            
7.9173609e-005  -2.2557788e-007            
7.9373542e-005  -2.2478848e-007            
7.9573475e-005  -2.2377442e-007            
7.9773409e-005  -2.2293956e-007            
7.9973342e-005  -2.2207587e-007            
8.0173276e-005  -2.2114073e-007            
8.0373209e-005  -2.2020014e-007            
8.0573142e-005  -2.191169e-007            
8.0773076e-005  -2.1795546e-007            
8.0973009e-005  -2.1659443e-007            
8.1172942e-005  -2.1519056e-007            
8.1372876e-005  -2.1396085e-007            
8.1572809e-005  -2.1264114e-007            
8.1772742e-005  -2.1111508e-007            
8.1972676e-005  -2.094742e-007            
8.2172609e-005  -2.0792369e-007            
8.2372542e-005  -2.0630711e-007            
8.2572476e-005  -2.0469427e-007            
8.2772409e-005  -2.0282135e-007            
8.2972343e-005  -2.0116582e-007            
8.3172276e-005  -1.9948463e-007            
8.3372209e-005  -1.9783164e-007            
8.3572143e-005  -1.9587142e-007            
8.3772076e-005  -1.9397635e-007            
8.3972009e-005  -1.9224879e-007            
8.4171943e-005  -1.9033315e-007            
8.4371876e-005  -1.8823672e-007            
8.4571809e-005  -1.8606978e-007            
8.4771743e-005  -1.8392291e-007            
8.4971676e-005  -1.8179853e-007            
8.5171609e-005  -1.7955441e-007            
8.5371543e-005  -1.7700585e-007            
8.5571476e-005  -1.7477971e-007            
8.5771409e-005  -1.7261239e-007            
8.5971343e-005  -1.7049121e-007            
8.6171276e-005  -1.6805386e-007            
8.637121e-005  -1.6546812e-007            
8.6571143e-005  -1.6310814e-007            
8.6771076e-005  -1.6102013e-007            
8.697101e-005  -1.5884556e-007            
8.7170943e-005  -1.5658432e-007            
8.7370876e-005  -1.5418179e-007            
8.757081e-005  -1.5209897e-007            
8.7770743e-005  -1.4986814e-007            
8.7970676e-005  -1.4771383e-007            
8.817061e-005  -1.4540268e-007            
8.8370543e-005  -1.4327826e-007            
8.8570476e-005  -1.4115524e-007            
8.877041e-005  -1.3903053e-007            
8.8970343e-005  -1.3656602e-007            
8.9170277e-005  -1.3445299e-007            
8.937021e-005  -1.3264843e-007            
8.9570143e-005  -1.3050291e-007            
8.9770077e-005  -1.2814291e-007            
8.997001e-005  -1.2587287e-007            
9.0169943e-005  -1.2371666e-007            
9.0369877e-005  -1.2190629e-007            
9.056981e-005  -1.1957836e-007            
9.0769743e-005  -1.1711614e-007            
