Surface Profile             
x       y           
[m]     [m]         
0  -6.3703715e-009            
1.9993336e-007  -8.6230044e-009            
3.9986671e-007  -1.0322915e-008            
5.9980007e-007  -1.1893429e-008            
7.9973342e-007  -1.3473054e-008            
9.9966678e-007  -1.4487717e-008            
1.1996001e-006  -1.5798938e-008            
1.3995335e-006  -1.7170499e-008            
1.5994668e-006  -1.883265e-008            
1.7994002e-006  -2.0573581e-008            
1.9993336e-006  -2.2024985e-008            
2.1992669e-006  -2.3730535e-008            
2.3992003e-006  -2.5748876e-008            
2.5991336e-006  -2.7614266e-008            
2.799067e-006  -2.9364086e-008            
2.9990003e-006  -3.1078965e-008            
3.1989337e-006  -3.288355e-008            
3.398867e-006  -3.454497e-008            
3.5988004e-006  -3.5904633e-008            
3.7987338e-006  -3.7088847e-008            
3.9986671e-006  -3.8283671e-008            
4.1986005e-006  -3.9489541e-008            
4.3985338e-006  -4.0680485e-008            
4.5984672e-006  -4.1599881e-008            
4.7984005e-006  -4.2373146e-008            
4.9983339e-006  -4.3155889e-008            
5.1982672e-006  -4.4102933e-008            
5.3982006e-006  -4.4716486e-008            
5.598134e-006  -4.5021279e-008            
5.7980673e-006  -4.5345041e-008            
5.9980007e-006  -4.5542439e-008            
6.197934e-006  -4.5595331e-008            
6.3978674e-006  -4.5530789e-008            
6.5978007e-006  -4.5380234e-008            
6.7977341e-006  -4.5236829e-008            
6.9976674e-006  -4.5150002e-008            
7.1976008e-006  -4.4793431e-008            
7.3975342e-006  -4.4370302e-008            
7.5974675e-006  -4.3861245e-008            
7.7974009e-006  -4.3153752e-008            
7.9973342e-006  -4.2512542e-008            
8.1972676e-006  -4.1731107e-008            
8.3972009e-006  -4.0828383e-008            
8.5971343e-006  -3.9930818e-008            
8.7970676e-006  -3.8680083e-008            
8.997001e-006  -3.755905e-008            
9.1969344e-006  -3.656869e-008            
9.3968677e-006  -3.5359008e-008            
9.5968011e-006  -3.4107747e-008            
9.7967344e-006  -3.2597221e-008            
9.9966678e-006  -3.1180218e-008            
1.0196601e-005  -2.9742862e-008            
1.0396534e-005  -2.8270964e-008            
1.0596468e-005  -2.6827416e-008            
1.0796401e-005  -2.5350593e-008            
1.0996335e-005  -2.3499305e-008            
1.1196268e-005  -2.1534e-008            
1.1396201e-005  -1.9725514e-008            
1.1596135e-005  -1.8110757e-008            
1.1796068e-005  -1.6322929e-008            
1.1996001e-005  -1.4275914e-008            
1.2195935e-005  -1.2017866e-008            
1.2395868e-005  -9.5823713e-009            
1.2595801e-005  -7.6430703e-009            
1.2795735e-005  -5.5618144e-009            
1.2995668e-005  -3.5681007e-009            
1.3195601e-005  -1.1564289e-009            
1.3395535e-005  1.4873637e-009            
1.3595468e-005  4.2064323e-009            
1.3795402e-005  6.5942449e-009            
1.3995335e-005  8.8245816e-009            
1.4195268e-005  1.091441e-008            
1.4395202e-005  1.3320177e-008            
1.4595135e-005  1.5995626e-008            
1.4795068e-005  1.8525426e-008            
1.4995002e-005  2.0785332e-008            
1.5194935e-005  2.2983129e-008            
1.5394868e-005  2.5125421e-008            
1.5594802e-005  2.7560057e-008            
1.5794735e-005  3.0105188e-008            
1.5994668e-005  3.284019e-008            
1.6194602e-005  3.5365894e-008            
1.6394535e-005  3.7669167e-008            
1.6594469e-005  3.9865823e-008            
1.6794402e-005  4.2424227e-008            
1.6994335e-005  4.5024999e-008            
1.7194269e-005  4.7591259e-008            
1.7394202e-005  4.9884126e-008            
1.7594135e-005  5.2118552e-008            
1.7794069e-005  5.4740244e-008            
1.7994002e-005  5.7438612e-008            
1.8193935e-005  6.0166929e-008            
1.8393869e-005  6.2718532e-008            
1.8593802e-005  6.5080875e-008            
1.8793735e-005  6.7380251e-008            
1.8993669e-005  6.9677744e-008            
1.9193602e-005  7.2100479e-008            
1.9393535e-005  7.4732727e-008            
1.9593469e-005  7.7280663e-008            
1.9793402e-005  7.9730947e-008            
1.9993336e-005  8.2045785e-008            
2.0193269e-005  8.4438775e-008            
2.0393202e-005  8.6937858e-008            
2.0593136e-005  8.9411288e-008            
2.0793069e-005  9.1862216e-008            
2.0993002e-005  9.422474e-008            
2.1192936e-005  9.649716e-008            
2.1392869e-005  9.906244e-008            
2.1592802e-005  1.014146e-007            
2.1792736e-005  1.0378519e-007            
2.1992669e-005  1.0615748e-007            
2.2192602e-005  1.0866673e-007            
2.2392536e-005  1.113551e-007            
2.2592469e-005  1.1391807e-007            
2.2792403e-005  1.1647775e-007            
2.2992336e-005  1.1900285e-007            
2.3192269e-005  1.2169788e-007            
2.3392203e-005  1.2435267e-007            
2.3592136e-005  1.2683821e-007            
2.3792069e-005  1.2939474e-007            
2.3992003e-005  1.3215922e-007            
2.4191936e-005  1.3500638e-007            
2.4391869e-005  1.3754278e-007            
2.4591803e-005  1.399749e-007            
2.4791736e-005  1.4244229e-007            
2.4991669e-005  1.4498031e-007            
2.5191603e-005  1.4766024e-007            
2.5391536e-005  1.5024876e-007            
2.5591469e-005  1.5300885e-007            
2.5791403e-005  1.5564793e-007            
2.5991336e-005  1.5818101e-007            
2.619127e-005  1.6043359e-007            
2.6391203e-005  1.6275336e-007            
2.6591136e-005  1.6538562e-007            
2.679107e-005  1.6832378e-007            
2.6991003e-005  1.7104852e-007            
2.7190936e-005  1.7361093e-007            
2.739087e-005  1.7612725e-007            
2.7590803e-005  1.7876255e-007            
2.7790736e-005  1.8173064e-007            
2.799067e-005  1.8444812e-007            
2.8190603e-005  1.8697126e-007            
2.8390536e-005  1.8935473e-007            
2.859047e-005  1.9178982e-007            
2.8790403e-005  1.9423157e-007            
2.8990337e-005  1.9657774e-007            
2.919027e-005  1.9910911e-007            
2.9390203e-005  2.016203e-007            
2.9590137e-005  2.0385195e-007            
2.979007e-005  2.0588372e-007            
2.9990003e-005  2.0801764e-007            
3.0189937e-005  2.1028021e-007            
3.038987e-005  2.127678e-007            
3.0589803e-005  2.1502554e-007            
3.0789737e-005  2.1697276e-007            
3.098967e-005  2.1895522e-007            
3.1189603e-005  2.2101392e-007            
3.1389537e-005  2.2328618e-007            
3.158947e-005  2.2546079e-007            
3.1789404e-005  2.2778839e-007            
3.1989337e-005  2.2988104e-007            
3.218927e-005  2.3192059e-007            
3.2389204e-005  2.3375779e-007            
3.2589137e-005  2.3565292e-007            
3.278907e-005  2.3777418e-007            
3.2989004e-005  2.3995623e-007            
3.3188937e-005  2.4171303e-007            
3.338887e-005  2.4329159e-007            
3.3588804e-005  2.4487742e-007            
3.3788737e-005  2.4678748e-007            
3.398867e-005  2.4890478e-007            
3.4188604e-005  2.5076121e-007            
3.4388537e-005  2.5228379e-007            
3.458847e-005  2.5399053e-007            
3.4788404e-005  2.5561748e-007            
3.4988337e-005  2.5750892e-007            
3.5188271e-005  2.5932971e-007            
3.5388204e-005  2.6117456e-007            
3.5588137e-005  2.6290928e-007            
3.5788071e-005  2.6468502e-007            
3.5988004e-005  2.6636603e-007            
3.6187937e-005  2.6819097e-007            
3.6387871e-005  2.7010819e-007            
3.6587804e-005  2.7204555e-007            
3.6787737e-005  2.7393626e-007            
3.6987671e-005  2.7565416e-007            
3.7187604e-005  2.7735431e-007            
3.7387537e-005  2.7927501e-007            
3.7587471e-005  2.8142911e-007            
3.7787404e-005  2.8341498e-007            
3.7987338e-005  2.8526358e-007            
3.8187271e-005  2.871088e-007            
3.8387204e-005  2.8891848e-007            
3.8587138e-005  2.9092133e-007            
3.8787071e-005  2.9293522e-007            
3.8987004e-005  2.9472985e-007            
3.9186938e-005  2.962747e-007            
3.9386871e-005  2.9778397e-007            
3.9586804e-005  2.9928827e-007            
3.9786738e-005  3.0098654e-007            
3.9986671e-005  3.023402e-007            
4.0186604e-005  3.0333959e-007            
4.0386538e-005  3.0432894e-007            
4.0586471e-005  3.0507772e-007            
4.0786405e-005  3.0626127e-007            
4.0986338e-005  3.0742251e-007            
4.1186271e-005  3.0858618e-007            
4.1386205e-005  3.0969922e-007            
4.1586138e-005  3.1065149e-007            
4.1786071e-005  3.115568e-007            
4.1986005e-005  3.122931e-007            
4.2185938e-005  3.1301544e-007            
4.2385871e-005  3.1384812e-007            
4.2585805e-005  3.1455864e-007            
4.2785738e-005  3.1514132e-007            
4.2985671e-005  3.1560818e-007            
4.3185605e-005  3.1616017e-007            
4.3385538e-005  3.1700037e-007            
4.3585471e-005  3.17689e-007            
4.3785405e-005  3.1804036e-007            
4.3985338e-005  3.1847054e-007            
4.4185272e-005  3.1889812e-007            
4.4385205e-005  3.1928604e-007            
4.4585138e-005  3.1973818e-007            
4.4785072e-005  3.202061e-007            
4.4985005e-005  3.2063565e-007            
4.5184938e-005  3.2092042e-007            
4.5384872e-005  3.2114993e-007            
4.5584805e-005  3.2151311e-007            
4.5784738e-005  3.2192369e-007            
4.5984672e-005  3.2232379e-007            
4.6184605e-005  3.2264096e-007            
4.6384538e-005  3.227133e-007            
4.6584472e-005  3.2295812e-007            
4.6784405e-005  3.2315933e-007            
4.6984339e-005  3.2340725e-007            
4.7184272e-005  3.2369401e-007            
4.7384205e-005  3.2385461e-007            
4.7584139e-005  3.2435984e-007            
4.7784072e-005  3.2475582e-007            
4.7984005e-005  3.2511126e-007            
4.8183939e-005  3.2540807e-007            
4.8383872e-005  3.256615e-007            
4.8583805e-005  3.257607e-007            
4.8783739e-005  3.2589712e-007            
4.8983672e-005  3.2589887e-007            
4.9183605e-005  3.2608245e-007            
4.9383539e-005  3.2637522e-007            
4.9583472e-005  3.2651749e-007            
4.9783406e-005  3.2681145e-007            
4.9983339e-005  3.2706841e-007            
5.0183272e-005  3.2725156e-007            
5.0383206e-005  3.2747905e-007            
5.0583139e-005  3.2773088e-007            
5.0783072e-005  3.2796347e-007            
5.0983006e-005  3.281524e-007            
5.1182939e-005  3.2834652e-007            
5.1382872e-005  3.2852686e-007            
5.1582806e-005  3.287765e-007            
5.1782739e-005  3.2887441e-007            
5.1982672e-005  3.2921753e-007            
5.2182606e-005  3.2933726e-007            
5.2382539e-005  3.2961565e-007            
5.2582472e-005  3.2976631e-007            
5.2782406e-005  3.3008092e-007            
5.2982339e-005  3.3030527e-007            
5.3182273e-005  3.3062855e-007            
5.3382206e-005  3.3103922e-007            
5.3582139e-005  3.3103003e-007            
5.3782073e-005  3.3098756e-007            
5.3982006e-005  3.3091031e-007            
5.4181939e-005  3.3106256e-007            
5.4381873e-005  3.3126919e-007            
5.4581806e-005  3.3123494e-007            
5.4781739e-005  3.311487e-007            
5.4981673e-005  3.3110186e-007            
5.5181606e-005  3.3106493e-007            
5.5381539e-005  3.3093287e-007            
5.5581473e-005  3.3080332e-007            
5.5781406e-005  3.3060754e-007            
5.598134e-005  3.3059398e-007            
5.6181273e-005  3.3034534e-007            
5.6381206e-005  3.299854e-007            
5.658114e-005  3.2991935e-007            
5.6781073e-005  3.299962e-007            
5.6981006e-005  3.3005144e-007            
5.718094e-005  3.2997915e-007            
5.7380873e-005  3.298354e-007            
5.7580806e-005  3.2979394e-007            
5.778074e-005  3.2977552e-007            
5.7980673e-005  3.296216e-007            
5.8180606e-005  3.292656e-007            
5.838054e-005  3.290304e-007            
5.8580473e-005  3.2872571e-007            
5.8780407e-005  3.2841081e-007            
5.898034e-005  3.2800871e-007            
5.9180273e-005  3.2787062e-007            
5.9380207e-005  3.2785189e-007            
5.958014e-005  3.2781925e-007            
5.9780073e-005  3.2753035e-007            
5.9980007e-005  3.2719392e-007            
6.017994e-005  3.2715822e-007            
6.0379873e-005  3.2733523e-007            
6.0579807e-005  3.273226e-007            
6.077974e-005  3.2713729e-007            
6.0979673e-005  3.2682539e-007            
6.1179607e-005  3.268141e-007            
6.137954e-005  3.2705786e-007            
6.1579473e-005  3.2733433e-007            
6.1779407e-005  3.2745368e-007            
6.197934e-005  3.276133e-007            
6.2179274e-005  3.2754639e-007            
6.2379207e-005  3.2765066e-007            
6.257914e-005  3.2773052e-007            
6.2779074e-005  3.2796711e-007            
6.2979007e-005  3.2835917e-007            
6.317894e-005  3.2860887e-007            
6.3378874e-005  3.2880566e-007            
6.3578807e-005  3.2895683e-007            
6.377874e-005  3.2930657e-007            
6.3978674e-005  3.2979521e-007            
6.4178607e-005  3.2993299e-007            
6.437854e-005  3.3009077e-007            
6.4578474e-005  3.3020702e-007            
6.4778407e-005  3.3044333e-007            
6.4978341e-005  3.3087045e-007            
6.5178274e-005  3.3120267e-007            
6.5378207e-005  3.3137616e-007            
6.5578141e-005  3.3171236e-007            
6.5778074e-005  3.3181149e-007            
6.5978007e-005  3.3202894e-007            
6.6177941e-005  3.3234859e-007            
6.6377874e-005  3.3282649e-007            
6.6577807e-005  3.3308293e-007            
6.6777741e-005  3.3334939e-007            
6.6977674e-005  3.3359638e-007            
6.7177607e-005  3.3390378e-007            
6.7377541e-005  3.3432949e-007            
6.7577474e-005  3.3460953e-007            
6.7777407e-005  3.3480865e-007            
6.7977341e-005  3.3489096e-007            
6.8177274e-005  3.3513305e-007            
6.8377208e-005  3.3516718e-007            
6.8577141e-005  3.3538822e-007            
6.8777074e-005  3.3562109e-007            
6.8977008e-005  3.3574622e-007            
6.9176941e-005  3.3594635e-007            
6.9376874e-005  3.3593057e-007            
6.9576808e-005  3.3600337e-007            
6.9776741e-005  3.3604491e-007            
6.9976674e-005  3.3603152e-007            
7.0176608e-005  3.359527e-007            
7.0376541e-005  3.3582277e-007            
7.0576474e-005  3.3591482e-007            
7.0776408e-005  3.3587205e-007            
7.0976341e-005  3.3584116e-007            
7.1176275e-005  3.357312e-007            
7.1376208e-005  3.3578353e-007            
7.1576141e-005  3.3568066e-007            
7.1776075e-005  3.3581544e-007            
7.1976008e-005  3.3555151e-007            
7.2175941e-005  3.353397e-007            
7.2375875e-005  3.3507894e-007            
7.2575808e-005  3.3489965e-007            
7.2775741e-005  3.3476113e-007            
7.2975675e-005  3.3461489e-007            
7.3175608e-005  3.3446863e-007            
7.3375541e-005  3.343798e-007            
7.3575475e-005  3.3411007e-007            
7.3775408e-005  3.3384637e-007            
7.3975342e-005  3.3360542e-007            
7.4175275e-005  3.334651e-007            
7.4375208e-005  3.3331844e-007            
7.4575142e-005  3.3297047e-007            
7.4775075e-005  3.3281715e-007            
7.4975008e-005  3.3271514e-007            
7.5174942e-005  3.32597e-007            
7.5374875e-005  3.3234943e-007            
7.5574808e-005  3.3216512e-007            
7.5774742e-005  3.3179638e-007            
7.5974675e-005  3.3162246e-007            
7.6174608e-005  3.3124938e-007            
7.6374542e-005  3.3099321e-007            
7.6574475e-005  3.3064276e-007            
7.6774408e-005  3.3016199e-007            
7.6974342e-005  3.2979504e-007            
7.7174275e-005  3.2945571e-007            
7.7374209e-005  3.2902695e-007            
7.7574142e-005  3.2869379e-007            
7.7774075e-005  3.281368e-007            
7.7974009e-005  3.2751946e-007            
7.8173942e-005  3.2702969e-007            
7.8373875e-005  3.2647045e-007            
7.8573809e-005  3.2601191e-007            
7.8773742e-005  3.2549247e-007            
7.8973675e-005  3.2484723e-007            
7.9173609e-005  3.2407848e-007            
7.9373542e-005  3.2347201e-007            
7.9573475e-005  3.2306436e-007            
7.9773409e-005  3.2269466e-007            
7.9973342e-005  3.2211703e-007            
8.0173276e-005  3.2140152e-007            
8.0373209e-005  3.207471e-007            
8.0573142e-005  3.2032242e-007            
8.0773076e-005  3.1984405e-007            
8.0973009e-005  3.1929988e-007            
8.1172942e-005  3.1884645e-007            
8.1372876e-005  3.1848345e-007            
8.1572809e-005  3.1795186e-007            
8.1772742e-005  3.1765108e-007            
8.1972676e-005  3.1724888e-007            
8.2172609e-005  3.1707061e-007            
8.2372542e-005  3.1686775e-007            
8.2572476e-005  3.1654092e-007            
8.2772409e-005  3.1628963e-007            
8.2972343e-005  3.1610881e-007            
8.3172276e-005  3.1603029e-007            
8.3372209e-005  3.1580827e-007            
8.3572143e-005  3.1553988e-007            
8.3772076e-005  3.1541586e-007            
8.3972009e-005  3.1531499e-007            
8.4171943e-005  3.1526988e-007            
8.4371876e-005  3.1528172e-007            
8.4571809e-005  3.1524737e-007            
8.4771743e-005  3.1511259e-007            
8.4971676e-005  3.150919e-007            
8.5171609e-005  3.150485e-007            
8.5371543e-005  3.1528399e-007            
8.5571476e-005  3.1531558e-007            
8.5771409e-005  3.1524529e-007            
8.5971343e-005  3.1518297e-007            
8.6171276e-005  3.1503545e-007            
8.637121e-005  3.1498667e-007            
8.6571143e-005  3.1503235e-007            
8.6771076e-005  3.1530185e-007            
8.697101e-005  3.1542675e-007            
8.7170943e-005  3.1543108e-007            
8.7370876e-005  3.153596e-007            
8.757081e-005  3.1556096e-007            
8.7770743e-005  3.1564489e-007            
8.7970676e-005  3.1577497e-007            
8.817061e-005  3.1567641e-007            
8.8370543e-005  3.1569445e-007            
8.8570476e-005  3.1588275e-007            
8.877041e-005  3.1600924e-007            
8.8970343e-005  3.1611373e-007            
8.9170277e-005  3.1619855e-007            
8.937021e-005  3.1624777e-007            
8.9570143e-005  3.1629986e-007            
8.9770077e-005  3.1626624e-007            
8.997001e-005  3.1610175e-007            
9.0169943e-005  3.1627759e-007            
9.0369877e-005  3.1655914e-007            
9.056981e-005  3.1666805e-007            
9.0769743e-005  3.166764e-007            
9.0969677e-005  3.1669825e-007            
9.116961e-005  3.1701491e-007            
9.1369543e-005  3.1737332e-007            
9.1569477e-005  3.174182e-007            
9.176941e-005  3.1744575e-007            
9.1969344e-005  3.1746983e-007            
9.2169277e-005  3.1771101e-007            
9.236921e-005  3.1772926e-007            
9.2569144e-005  3.1770371e-007            
