Surface Profile             
x       y           
[m]     [m]         
0  6.6848255e-009            
1.9993336e-007  9.7961724e-009            
3.9986671e-007  1.1773682e-008            
5.9980007e-007  1.3448652e-008            
7.9973342e-007  1.5084166e-008            
9.9966678e-007  1.5747408e-008            
1.1996001e-006  1.6779329e-008            
1.3995335e-006  1.8202604e-008            
1.5994668e-006  2.0061196e-008            
1.7994002e-006  2.1656812e-008            
1.9993336e-006  2.3002378e-008            
2.1992669e-006  2.4345209e-008            
2.3992003e-006  2.5918162e-008            
2.5991336e-006  2.7550462e-008            
2.799067e-006  2.9460163e-008            
2.9990003e-006  3.1434472e-008            
3.1989337e-006  3.3387101e-008            
3.398867e-006  3.4976113e-008            
3.5988004e-006  3.6843966e-008            
3.7987338e-006  3.8701763e-008            
3.9986671e-006  4.0783601e-008            
4.1986005e-006  4.2776449e-008            
4.3985338e-006  4.4682748e-008            
4.5984672e-006  4.6474791e-008            
4.7984005e-006  4.8540364e-008            
4.9983339e-006  5.0682251e-008            
5.1982672e-006  5.2804421e-008            
5.3982006e-006  5.5028077e-008            
5.598134e-006  5.7159976e-008            
5.7980673e-006  5.9267826e-008            
5.9980007e-006  6.111348e-008            
6.197934e-006  6.295194e-008            
6.3978674e-006  6.5216939e-008            
6.5978007e-006  6.7635065e-008            
6.7977341e-006  6.9760442e-008            
6.9976674e-006  7.1660737e-008            
7.1976008e-006  7.3469555e-008            
7.3975342e-006  7.5470882e-008            
7.5974675e-006  7.775994e-008            
7.7974009e-006  7.9927084e-008            
7.9973342e-006  8.2194459e-008            
8.1972676e-006  8.429392e-008            
8.3972009e-006  8.6371117e-008            
8.5971343e-006  8.8452992e-008            
8.7970676e-006  9.0528007e-008            
8.997001e-006  9.2970253e-008            
9.1969344e-006  9.5214662e-008            
9.3968677e-006  9.7435888e-008            
9.5968011e-006  9.9609161e-008            
9.7967344e-006  1.016923e-007            
9.9966678e-006  1.0400362e-007            
1.0196601e-005  1.0622475e-007            
1.0396534e-005  1.0845946e-007            
1.0596468e-005  1.1067337e-007            
1.0796401e-005  1.1282845e-007            
1.0996335e-005  1.1499626e-007            
1.1196268e-005  1.1713601e-007            
1.1396201e-005  1.192952e-007            
1.1596135e-005  1.2154449e-007            
1.1796068e-005  1.2329604e-007            
1.1996001e-005  1.2493156e-007            
1.2195935e-005  1.2671645e-007            
1.2395868e-005  1.2893058e-007            
1.2595801e-005  1.3131762e-007            
1.2795735e-005  1.3358956e-007            
1.2995668e-005  1.3539957e-007            
1.3195601e-005  1.3723086e-007            
1.3395535e-005  1.3924523e-007            
1.3595468e-005  1.4147005e-007            
1.3795402e-005  1.4394748e-007            
1.3995335e-005  1.4624353e-007            
1.4195268e-005  1.4845651e-007            
1.4395202e-005  1.5073751e-007            
1.4595135e-005  1.5273315e-007            
1.4795068e-005  1.5492992e-007            
1.4995002e-005  1.572697e-007            
1.5194935e-005  1.5958655e-007            
1.5394868e-005  1.6162388e-007            
1.5594802e-005  1.6323091e-007            
1.5794735e-005  1.6521304e-007            
1.5994668e-005  1.6729896e-007            
1.6194602e-005  1.6957429e-007            
1.6394535e-005  1.7146441e-007            
1.6594469e-005  1.7301781e-007            
1.6794402e-005  1.7467969e-007            
1.6994335e-005  1.764587e-007            
1.7194269e-005  1.7849431e-007            
1.7394202e-005  1.8049512e-007            
1.7594135e-005  1.8244606e-007            
1.7794069e-005  1.8419406e-007            
1.7994002e-005  1.8586955e-007            
1.8193935e-005  1.8747811e-007            
1.8393869e-005  1.8938772e-007            
1.8593802e-005  1.9154029e-007            
1.8793735e-005  1.9367186e-007            
1.8993669e-005  1.956051e-007            
1.9193602e-005  1.9728977e-007            
1.9393535e-005  1.9924149e-007            
1.9593469e-005  2.015023e-007            
1.9793402e-005  2.0360569e-007            
1.9993336e-005  2.056767e-007            
2.0193269e-005  2.076896e-007            
2.0393202e-005  2.0957053e-007            
2.0593136e-005  2.1173673e-007            
2.0793069e-005  2.1381481e-007            
2.0993002e-005  2.1600965e-007            
2.1192936e-005  2.1803155e-007            
2.1392869e-005  2.1990184e-007            
2.1592802e-005  2.2170944e-007            
2.1792736e-005  2.2335376e-007            
2.1992669e-005  2.2522843e-007            
2.2192602e-005  2.273578e-007            
2.2392536e-005  2.2957412e-007            
2.2592469e-005  2.3155031e-007            
2.2792403e-005  2.332231e-007            
2.2992336e-005  2.3500858e-007            
2.3192269e-005  2.3712963e-007            
2.3392203e-005  2.3944188e-007            
2.3592136e-005  2.4156167e-007            
2.3792069e-005  2.4359082e-007            
2.3992003e-005  2.4561234e-007            
2.4191936e-005  2.4778425e-007            
2.4391869e-005  2.4984425e-007            
2.4591803e-005  2.5188501e-007            
2.4791736e-005  2.5384291e-007            
2.4991669e-005  2.557168e-007            
2.5191603e-005  2.57562e-007            
2.5391536e-005  2.5933636e-007            
2.5591469e-005  2.610887e-007            
2.5791403e-005  2.629499e-007            
2.5991336e-005  2.6476266e-007            
2.619127e-005  2.6644146e-007            
2.6391203e-005  2.6794433e-007            
2.6591136e-005  2.6940133e-007            
2.679107e-005  2.7094277e-007            
2.6991003e-005  2.7261808e-007            
2.7190936e-005  2.7409254e-007            
2.739087e-005  2.7560404e-007            
2.7590803e-005  2.7697738e-007            
2.7790736e-005  2.7841283e-007            
2.799067e-005  2.7990476e-007            
2.8190603e-005  2.8145078e-007            
2.8390536e-005  2.831335e-007            
2.859047e-005  2.8478605e-007            
2.8790403e-005  2.8617286e-007            
2.8990337e-005  2.8755226e-007            
2.919027e-005  2.8898633e-007            
2.9390203e-005  2.9055411e-007            
2.9590137e-005  2.9238591e-007            
2.979007e-005  2.9394588e-007            
2.9990003e-005  2.9526059e-007            
3.0189937e-005  2.9648846e-007            
3.038987e-005  2.9778507e-007            
3.0589803e-005  2.9923037e-007            
3.0789737e-005  3.0041092e-007            
3.098967e-005  3.0175054e-007            
3.1189603e-005  3.0296788e-007            
3.1389537e-005  3.0421895e-007            
3.158947e-005  3.0548236e-007            
3.1789404e-005  3.0681224e-007            
3.1989337e-005  3.0822729e-007            
3.218927e-005  3.0975971e-007            
3.2389204e-005  3.1081494e-007            
3.2589137e-005  3.1180168e-007            
3.278907e-005  3.1291501e-007            
3.2989004e-005  3.1431844e-007            
3.3188937e-005  3.1581424e-007            
3.338887e-005  3.1690791e-007            
3.3588804e-005  3.1772295e-007            
3.3788737e-005  3.1861617e-007            
3.398867e-005  3.1948282e-007            
3.4188604e-005  3.2071768e-007            
3.4388537e-005  3.2175379e-007            
3.458847e-005  3.2281228e-007            
3.4788404e-005  3.2352725e-007            
3.4988337e-005  3.2423687e-007            
3.5188271e-005  3.2484422e-007            
3.5388204e-005  3.2587142e-007            
3.5588137e-005  3.2685389e-007            
3.5788071e-005  3.2780562e-007            
3.5988004e-005  3.2839745e-007            
3.6187937e-005  3.2898635e-007            
3.6387871e-005  3.2970736e-007            
3.6587804e-005  3.3053834e-007            
3.6787737e-005  3.3145367e-007            
3.6987671e-005  3.3219371e-007            
3.7187604e-005  3.32647e-007            
3.7387537e-005  3.3313352e-007            
3.7587471e-005  3.3365563e-007            
3.7787404e-005  3.3426146e-007            
3.7987338e-005  3.3500318e-007            
3.8187271e-005  3.355582e-007            
3.8387204e-005  3.3602343e-007            
3.8587138e-005  3.3629583e-007            
3.8787071e-005  3.3660448e-007            
3.8987004e-005  3.3722911e-007            
3.9186938e-005  3.3792284e-007            
3.9386871e-005  3.3836503e-007            
3.9586804e-005  3.3857862e-007            
3.9786738e-005  3.3881901e-007            
3.9986671e-005  3.3927377e-007            
4.0186604e-005  3.3972716e-007            
4.0386538e-005  3.4021054e-007            
4.0586471e-005  3.4059125e-007            
4.0786405e-005  3.4085883e-007            
4.0986338e-005  3.410639e-007            
4.1186271e-005  3.4114462e-007            
4.1386205e-005  3.4143979e-007            
4.1586138e-005  3.4209847e-007            
4.1786071e-005  3.4253756e-007            
4.1986005e-005  3.4269919e-007            
4.2185938e-005  3.4288769e-007            
4.2385871e-005  3.4303837e-007            
4.2585805e-005  3.4346004e-007            
4.2785738e-005  3.4378982e-007            
4.2985671e-005  3.440146e-007            
4.3185605e-005  3.4404923e-007            
4.3385538e-005  3.4421574e-007            
4.3585471e-005  3.4440034e-007            
4.3785405e-005  3.4472193e-007            
4.3985338e-005  3.450387e-007            
4.4185272e-005  3.4535802e-007            
4.4385205e-005  3.4562315e-007            
4.4585138e-005  3.4571461e-007            
4.4785072e-005  3.4570998e-007            
4.4985005e-005  3.4575902e-007            
4.5184938e-005  3.4590408e-007            
4.5384872e-005  3.4595806e-007            
4.5584805e-005  3.4572673e-007            
4.5784738e-005  3.4570366e-007            
4.5984672e-005  3.4548135e-007            
4.6184605e-005  3.4553167e-007            
4.6384538e-005  3.4539955e-007            
4.6584472e-005  3.451008e-007            
4.6784405e-005  3.4488936e-007            
4.6984339e-005  3.4451172e-007            
4.7184272e-005  3.4422791e-007            
4.7384205e-005  3.4400052e-007            
4.7584139e-005  3.4396497e-007            
4.7784072e-005  3.4380119e-007            
4.7984005e-005  3.4348166e-007            
4.8183939e-005  3.4304005e-007            
4.8383872e-005  3.4268459e-007            
4.8583805e-005  3.42468e-007            
4.8783739e-005  3.4218161e-007            
4.8983672e-005  3.4200547e-007            
4.9183605e-005  3.4168833e-007            
4.9383539e-005  3.4120933e-007            
4.9583472e-005  3.4091558e-007            
4.9783406e-005  3.4070452e-007            
4.9983339e-005  3.407018e-007            
5.0183272e-005  3.4061628e-007            
5.0383206e-005  3.4037651e-007            
5.0583139e-005  3.4006077e-007            
5.0783072e-005  3.3977981e-007            
5.0983006e-005  3.3941583e-007            
5.1182939e-005  3.3937828e-007            
5.1382872e-005  3.3904208e-007            
5.1582806e-005  3.3887174e-007            
5.1782739e-005  3.3845561e-007            
5.1982672e-005  3.3823696e-007            
5.2182606e-005  3.3782759e-007            
5.2382539e-005  3.3762823e-007            
5.2582472e-005  3.3763167e-007            
5.2782406e-005  3.3723584e-007            
5.2982339e-005  3.367768e-007            
5.3182273e-005  3.3616215e-007            
5.3382206e-005  3.3575158e-007            
5.3582139e-005  3.3579818e-007            
5.3782073e-005  3.3554751e-007            
5.3982006e-005  3.3514105e-007            
5.4181939e-005  3.346914e-007            
5.4381873e-005  3.3415094e-007            
5.4581806e-005  3.337107e-007            
5.4781739e-005  3.3337338e-007            
5.4981673e-005  3.3293936e-007            
5.5181606e-005  3.3276089e-007            
5.5381539e-005  3.3242116e-007            
5.5581473e-005  3.3177241e-007            
5.5781406e-005  3.3120786e-007            
5.598134e-005  3.3091395e-007            
5.6181273e-005  3.3066913e-007            
5.6381206e-005  3.3038446e-007            
5.658114e-005  3.2964397e-007            
5.6781073e-005  3.2892571e-007            
5.6981006e-005  3.2837383e-007            
5.718094e-005  3.2795691e-007            
5.7380873e-005  3.2749802e-007            
5.7580806e-005  3.2704434e-007            
5.778074e-005  3.265537e-007            
5.7980673e-005  3.2608566e-007            
5.8180606e-005  3.2552925e-007            
5.838054e-005  3.249448e-007            
5.8580473e-005  3.2455992e-007            
5.8780407e-005  3.2427567e-007            
5.898034e-005  3.2381626e-007            
5.9180273e-005  3.2311524e-007            
5.9380207e-005  3.2245575e-007            
5.958014e-005  3.2188081e-007            
5.9780073e-005  3.2166097e-007            
5.9980007e-005  3.2132415e-007            
6.017994e-005  3.2049767e-007            
6.0379873e-005  3.1964509e-007            
6.0579807e-005  3.1908934e-007            
6.077974e-005  3.1857062e-007            
6.0979673e-005  3.1815252e-007            
6.1179607e-005  3.1735515e-007            
6.137954e-005  3.1654925e-007            
6.1579473e-005  3.1584602e-007            
6.1779407e-005  3.1517257e-007            
6.197934e-005  3.1445783e-007            
6.2179274e-005  3.1368892e-007            
6.2379207e-005  3.1308966e-007            
6.257914e-005  3.1232718e-007            
6.2779074e-005  3.1148646e-007            
6.2979007e-005  3.1050057e-007            
6.317894e-005  3.0996733e-007            
6.3378874e-005  3.0940879e-007            
6.3578807e-005  3.0866995e-007            
6.377874e-005  3.0768881e-007            
6.3978674e-005  3.0673178e-007            
6.4178607e-005  3.0601985e-007            
6.437854e-005  3.0521161e-007            
6.4578474e-005  3.0417563e-007            
6.4778407e-005  3.03055e-007            
6.4978341e-005  3.0222286e-007            
6.5178274e-005  3.0149539e-007            
6.5378207e-005  3.0051409e-007            
6.5578141e-005  2.9960458e-007            
6.5778074e-005  2.9884196e-007            
6.5978007e-005  2.9809043e-007            
6.6177941e-005  2.9710244e-007            
6.6377874e-005  2.9597764e-007            
6.6577807e-005  2.9493352e-007            
6.6777741e-005  2.9431634e-007            
6.6977674e-005  2.9338382e-007            
6.7177607e-005  2.9221097e-007            
6.7377541e-005  2.9108811e-007            
6.7577474e-005  2.9004477e-007            
6.7777407e-005  2.8921632e-007            
6.7977341e-005  2.8813988e-007            
6.8177274e-005  2.8679765e-007            
6.8377208e-005  2.8563802e-007            
6.8577141e-005  2.8461687e-007            
6.8777074e-005  2.8350361e-007            
6.8977008e-005  2.8229282e-007            
6.9176941e-005  2.8105636e-007            
6.9376874e-005  2.798707e-007            
6.9576808e-005  2.7891236e-007            
6.9776741e-005  2.7775988e-007            
6.9976674e-005  2.7654577e-007            
7.0176608e-005  2.7518057e-007            
7.0376541e-005  2.7393452e-007            
7.0576474e-005  2.7274957e-007            
7.0776408e-005  2.7136439e-007            
7.0976341e-005  2.7000222e-007            
7.1176275e-005  2.6865443e-007            
7.1376208e-005  2.67167e-007            
7.1576141e-005  2.6567855e-007            
7.1776075e-005  2.6421111e-007            
7.1976008e-005  2.6285346e-007            
7.2175941e-005  2.6144467e-007            
7.2375875e-005  2.5973421e-007            
7.2575808e-005  2.5801672e-007            
7.2775741e-005  2.5630251e-007            
7.2975675e-005  2.5470434e-007            
7.3175608e-005  2.5310998e-007            
7.3375541e-005  2.5128729e-007            
7.3575475e-005  2.4968686e-007            
7.3775408e-005  2.4821344e-007            
7.3975342e-005  2.4651259e-007            
7.4175275e-005  2.4481395e-007            
7.4375208e-005  2.4315869e-007            
7.4575142e-005  2.4173852e-007            
7.4775075e-005  2.4033151e-007            
7.4975008e-005  2.3869843e-007            
7.5174942e-005  2.3707829e-007            
7.5374875e-005  2.3551142e-007            
7.5574808e-005  2.3391494e-007            
7.5774742e-005  2.3237608e-007            
7.5974675e-005  2.3055663e-007            
7.6174608e-005  2.2891972e-007            
7.6374542e-005  2.2745624e-007            
7.6574475e-005  2.2566389e-007            
7.6774408e-005  2.240778e-007            
7.6974342e-005  2.2230676e-007            
7.7174275e-005  2.2062837e-007            
7.7374209e-005  2.1888415e-007            
7.7574142e-005  2.1713353e-007            
7.7774075e-005  2.1534865e-007            
7.7974009e-005  2.1366518e-007            
7.8173942e-005  2.1194669e-007            
7.8373875e-005  2.1023578e-007            
7.8573809e-005  2.084993e-007            
7.8773742e-005  2.0662516e-007            
7.8973675e-005  2.0502348e-007            
7.9173609e-005  2.035505e-007            
7.9373542e-005  2.0206101e-007            
7.9573475e-005  2.0061317e-007            
7.9773409e-005  1.9900127e-007            
7.9973342e-005  1.9736509e-007            
8.0173276e-005  1.9566378e-007            
8.0373209e-005  1.9410377e-007            
8.0573142e-005  1.927024e-007            
8.0773076e-005  1.9108101e-007            
8.0973009e-005  1.8937197e-007            
8.1172942e-005  1.8771291e-007            
8.1372876e-005  1.8616396e-007            
8.1572809e-005  1.8485019e-007            
8.1772742e-005  1.8329652e-007            
8.1972676e-005  1.815435e-007            
8.2172609e-005  1.7986388e-007            
8.2372542e-005  1.7815687e-007            
8.2572476e-005  1.7680483e-007            
8.2772409e-005  1.751718e-007            
8.2972343e-005  1.7352651e-007            
8.3172276e-005  1.7176037e-007            
8.3372209e-005  1.7018319e-007            
8.3572143e-005  1.6871323e-007            
8.3772076e-005  1.6706018e-007            
8.3972009e-005  1.6537384e-007            
8.4171943e-005  1.6387665e-007            
8.4371876e-005  1.6221212e-007            
8.4571809e-005  1.6047118e-007            
8.4771743e-005  1.5865581e-007            
8.4971676e-005  1.5695674e-007            
8.5171609e-005  1.5549693e-007            
8.5371543e-005  1.5385023e-007            
8.5571476e-005  1.5200313e-007            
8.5771409e-005  1.5033216e-007            
8.5971343e-005  1.4857329e-007            
8.6171276e-005  1.4711022e-007            
8.637121e-005  1.4544327e-007            
8.6571143e-005  1.4365371e-007            
8.6771076e-005  1.418369e-007            
8.697101e-005  1.400857e-007            
8.7170943e-005  1.3829966e-007            
8.7370876e-005  1.3655567e-007            
8.757081e-005  1.34697e-007            
8.7770743e-005  1.328486e-007            
8.7970676e-005  1.3093867e-007            
8.817061e-005  1.2901675e-007            
8.8370543e-005  1.2715685e-007            
8.8570476e-005  1.2518948e-007            
8.877041e-005  1.2317649e-007            
8.8970343e-005  1.2135112e-007            
8.9170277e-005  1.1937016e-007            
8.937021e-005  1.1765481e-007            
8.9570143e-005  1.1563065e-007            
8.9770077e-005  1.1378837e-007            
8.997001e-005  1.1208883e-007            
9.0169943e-005  1.1039649e-007            
9.0369877e-005  1.0885843e-007            
9.056981e-005  1.0727194e-007            
9.0769743e-005  1.0559646e-007            
9.0969677e-005  1.036937e-007            
9.116961e-005  1.019621e-007            
9.1369543e-005  1.0021356e-007            
9.1569477e-005  9.86047e-008            
9.176941e-005  9.6723663e-008            
9.1969344e-005  9.4773603e-008            
9.2169277e-005  9.2896284e-008            
9.236921e-005  9.1084961e-008            
9.2569144e-005  8.9357143e-008            
9.2769077e-005  8.7582177e-008            
9.296901e-005  8.573641e-008            
