Surface Profile             
x       y           
[m]     [m]         
0  -1.7496369e-009            
1.9993336e-007  -2.4366472e-009            
3.9986671e-007  -3.2643683e-009            
5.9980007e-007  -3.709812e-009            
7.9973342e-007  -4.1455051e-009            
9.9966678e-007  -4.7730311e-009            
1.1996001e-006  -5.3645801e-009            
1.3995335e-006  -5.7566782e-009            
1.5994668e-006  -6.2672883e-009            
1.7994002e-006  -6.7394824e-009            
1.9993336e-006  -7.3520611e-009            
2.1992669e-006  -7.966228e-009            
2.3992003e-006  -8.5458407e-009            
2.5991336e-006  -9.0896632e-009            
2.799067e-006  -9.5416016e-009            
2.9990003e-006  -1.0053606e-008            
3.1989337e-006  -1.0551788e-008            
3.398867e-006  -1.10804e-008            
3.5988004e-006  -1.1806121e-008            
3.7987338e-006  -1.2291294e-008            
3.9986671e-006  -1.2788007e-008            
4.1986005e-006  -1.3380036e-008            
4.3985338e-006  -1.390397e-008            
4.5984672e-006  -1.4504371e-008            
4.7984005e-006  -1.5054109e-008            
4.9983339e-006  -1.543085e-008            
5.1982672e-006  -1.5821161e-008            
5.3982006e-006  -1.627901e-008            
5.598134e-006  -1.6773759e-008            
5.7980673e-006  -1.7258951e-008            
5.9980007e-006  -1.7431887e-008            
6.197934e-006  -1.7746742e-008            
6.3978674e-006  -1.8098442e-008            
6.5978007e-006  -1.8463606e-008            
6.7977341e-006  -1.8876333e-008            
6.9976674e-006  -1.905225e-008            
7.1976008e-006  -1.9527317e-008            
7.3975342e-006  -2.0096985e-008            
7.5974675e-006  -2.0455385e-008            
7.7974009e-006  -2.0527868e-008            
7.9973342e-006  -2.0734951e-008            
8.1972676e-006  -2.1136695e-008            
8.3972009e-006  -2.1758039e-008            
8.5971343e-006  -2.216776e-008            
8.7970676e-006  -2.2305836e-008            
8.997001e-006  -2.2534848e-008            
9.1969344e-006  -2.272671e-008            
9.3968677e-006  -2.2880454e-008            
9.5968011e-006  -2.2967569e-008            
9.7967344e-006  -2.31349e-008            
9.9966678e-006  -2.3358909e-008            
1.0196601e-005  -2.3507018e-008            
1.0396534e-005  -2.3645315e-008            
1.0596468e-005  -2.3547904e-008            
1.0796401e-005  -2.38328e-008            
1.0996335e-005  -2.3978568e-008            
1.1196268e-005  -2.4027566e-008            
1.1396201e-005  -2.3960643e-008            
1.1596135e-005  -2.3959879e-008            
1.1796068e-005  -2.3879636e-008            
1.1996001e-005  -2.3916667e-008            
1.2195935e-005  -2.3803805e-008            
1.2395868e-005  -2.3764234e-008            
1.2595801e-005  -2.3937027e-008            
1.2795735e-005  -2.3883011e-008            
1.2995668e-005  -2.3697754e-008            
1.3195601e-005  -2.3653464e-008            
1.3395535e-005  -2.3682256e-008            
1.3595468e-005  -2.3644742e-008            
1.3795402e-005  -2.3469831e-008            
1.3995335e-005  -2.3145198e-008            
1.4195268e-005  -2.2914533e-008            
1.4395202e-005  -2.2816851e-008            
1.4595135e-005  -2.2821159e-008            
1.4795068e-005  -2.2885355e-008            
1.4995002e-005  -2.2613762e-008            
1.5194935e-005  -2.2443312e-008            
1.5394868e-005  -2.2272312e-008            
1.5594802e-005  -2.2275424e-008            
1.5794735e-005  -2.2207297e-008            
1.5994668e-005  -2.2116217e-008            
1.6194602e-005  -2.1913995e-008            
1.6394535e-005  -2.1617962e-008            
1.6594469e-005  -2.1437087e-008            
1.6794402e-005  -2.1218088e-008            
1.6994335e-005  -2.1214675e-008            
1.7194269e-005  -2.1028065e-008            
1.7394202e-005  -2.0937611e-008            
1.7594135e-005  -2.0554084e-008            
1.7794069e-005  -2.0279981e-008            
1.7994002e-005  -1.9917875e-008            
1.8193935e-005  -1.9772616e-008            
1.8393869e-005  -1.9674229e-008            
1.8593802e-005  -1.9558853e-008            
1.8793735e-005  -1.9348966e-008            
1.8993669e-005  -1.904015e-008            
1.9193602e-005  -1.8981228e-008            
1.9393535e-005  -1.8875359e-008            
1.9593469e-005  -1.8613775e-008            
1.9793402e-005  -1.8418307e-008            
1.9993336e-005  -1.8337706e-008            
2.0193269e-005  -1.8231815e-008            
2.0393202e-005  -1.8053863e-008            
2.0593136e-005  -1.7941531e-008            
2.0793069e-005  -1.7741048e-008            
2.0993002e-005  -1.7782976e-008            
2.1192936e-005  -1.7425664e-008            
2.1392869e-005  -1.7153746e-008            
2.1592802e-005  -1.707055e-008            
2.1792736e-005  -1.6844297e-008            
2.1992669e-005  -1.6762162e-008            
2.2192602e-005  -1.6499992e-008            
2.2392536e-005  -1.6143379e-008            
2.2592469e-005  -1.5922944e-008            
2.2792403e-005  -1.5737555e-008            
2.2992336e-005  -1.5657712e-008            
2.3192269e-005  -1.5474361e-008            
2.3392203e-005  -1.5195171e-008            
2.3592136e-005  -1.4865873e-008            
2.3792069e-005  -1.4630766e-008            
2.3992003e-005  -1.439317e-008            
2.4191936e-005  -1.414278e-008            
2.4391869e-005  -1.3779571e-008            
2.4591803e-005  -1.3552764e-008            
2.4791736e-005  -1.3282014e-008            
2.4991669e-005  -1.3053704e-008            
2.5191603e-005  -1.292685e-008            
2.5391536e-005  -1.274374e-008            
2.5591469e-005  -1.2717412e-008            
2.5791403e-005  -1.2433423e-008            
2.5991336e-005  -1.2394539e-008            
2.619127e-005  -1.2283916e-008            
2.6391203e-005  -1.2276179e-008            
2.6591136e-005  -1.2274285e-008            
2.679107e-005  -1.2061988e-008            
2.6991003e-005  -1.1902219e-008            
2.7190936e-005  -1.1735453e-008            
2.739087e-005  -1.161994e-008            
2.7590803e-005  -1.1399372e-008            
2.7790736e-005  -1.1249664e-008            
2.799067e-005  -1.0945654e-008            
2.8190603e-005  -1.0644331e-008            
2.8390536e-005  -1.0420213e-008            
2.859047e-005  -1.0070855e-008            
2.8790403e-005  -9.856086e-009            
2.8990337e-005  -9.5437415e-009            
2.919027e-005  -9.0964381e-009            
2.9390203e-005  -8.7280201e-009            
2.9590137e-005  -8.4463193e-009            
2.979007e-005  -7.9772703e-009            
2.9990003e-005  -7.6612412e-009            
3.0189937e-005  -7.3293011e-009            
3.038987e-005  -6.9226306e-009            
3.0589803e-005  -6.3921488e-009            
3.0789737e-005  -5.8752467e-009            
3.098967e-005  -5.6371418e-009            
3.1189603e-005  -5.0539625e-009            
3.1389537e-005  -4.4938789e-009            
3.158947e-005  -3.7603651e-009            
3.1789404e-005  -3.2493217e-009            
3.1989337e-005  -2.737695e-009            
3.218927e-005  -2.0079538e-009            
3.2389204e-005  -1.6660569e-009            
3.2589137e-005  -1.2373696e-009            
3.278907e-005  -8.9963345e-010            
3.2989004e-005  -3.955259e-010            
3.3188937e-005  2.7398388e-010            
3.338887e-005  7.8062506e-010            
3.3588804e-005  1.386217e-009            
3.3788737e-005  2.0261801e-009            
3.398867e-005  2.6379519e-009            
3.4188604e-005  3.3183586e-009            
3.4388537e-005  4.0429707e-009            
3.458847e-005  4.691565e-009            
3.4788404e-005  5.193921e-009            
3.4988337e-005  5.72116e-009            
3.5188271e-005  6.4336442e-009            
3.5388204e-005  7.0602639e-009            
3.5588137e-005  7.6725101e-009            
3.5788071e-005  8.2443642e-009            
3.5988004e-005  8.9229776e-009            
3.6187937e-005  9.3992405e-009            
3.6387871e-005  9.8666972e-009            
3.6587804e-005  1.0317567e-008            
3.6787737e-005  1.0792997e-008            
3.6987671e-005  1.1464112e-008            
3.7187604e-005  1.1876003e-008            
3.7387537e-005  1.2212728e-008            
3.7587471e-005  1.2513533e-008            
3.7787404e-005  1.2731529e-008            
3.7987338e-005  1.3188817e-008            
3.8187271e-005  1.3508905e-008            
3.8387204e-005  1.3818698e-008            
3.8587138e-005  1.406021e-008            
3.8787071e-005  1.4307014e-008            
3.8987004e-005  1.4746275e-008            
3.9186938e-005  1.5143509e-008            
3.9386871e-005  1.535157e-008            
3.9586804e-005  1.5552216e-008            
3.9786738e-005  1.5756437e-008            
3.9986671e-005  1.602641e-008            
4.0186604e-005  1.6138782e-008            
4.0386538e-005  1.6223112e-008            
4.0586471e-005  1.662341e-008            
4.0786405e-005  1.6788537e-008            
4.0986338e-005  1.6727839e-008            
4.1186271e-005  1.6862923e-008            
4.1386205e-005  1.7218268e-008            
4.1586138e-005  1.7616516e-008            
4.1786071e-005  1.7720768e-008            
4.1986005e-005  1.7692191e-008            
4.2185938e-005  1.759188e-008            
4.2385871e-005  1.7807091e-008            
4.2585805e-005  1.7884391e-008            
4.2785738e-005  1.7961654e-008            
4.2985671e-005  1.7819546e-008            
4.3185605e-005  1.8041586e-008            
4.3385538e-005  1.8221788e-008            
4.3585471e-005  1.8219872e-008            
4.3785405e-005  1.825155e-008            
4.3985338e-005  1.8635293e-008            
4.4185272e-005  1.8284666e-008            
4.4385205e-005  1.8106041e-008            
4.4585138e-005  1.7767712e-008            
4.4785072e-005  1.7682398e-008            
4.4985005e-005  1.7861851e-008            
4.5184938e-005  1.836523e-008            
4.5384872e-005  1.8444593e-008            
4.5584805e-005  1.8268067e-008            
4.5784738e-005  1.8237244e-008            
4.5984672e-005  1.8535623e-008            
4.6184605e-005  1.8378076e-008            
4.6384538e-005  1.8374901e-008            
4.6584472e-005  1.8454149e-008            
4.6784405e-005  1.8575144e-008            
4.6984339e-005  1.8408655e-008            
4.7184272e-005  1.8103856e-008            
4.7384205e-005  1.8102916e-008            
4.7584139e-005  1.8393249e-008            
4.7784072e-005  1.865192e-008            
4.7984005e-005  1.8475712e-008            
4.8183939e-005  1.8089277e-008            
4.8383872e-005  1.7962854e-008            
4.8583805e-005  1.8100144e-008            
4.8783739e-005  1.8168676e-008            
4.8983672e-005  1.8000728e-008            
4.9183605e-005  1.7881647e-008            
4.9383539e-005  1.7755109e-008            
4.9583472e-005  1.7814722e-008            
4.9783406e-005  1.7621611e-008            
4.9983339e-005  1.7356561e-008            
5.0183272e-005  1.7339732e-008            
5.0383206e-005  1.73252e-008            
5.0583139e-005  1.7051702e-008            
5.0783072e-005  1.6606113e-008            
5.0983006e-005  1.6570387e-008            
5.1182939e-005  1.6636455e-008            
5.1382872e-005  1.6638139e-008            
5.1582806e-005  1.6269262e-008            
5.1782739e-005  1.5932052e-008            
5.1982672e-005  1.571683e-008            
5.2182606e-005  1.5649255e-008            
5.2382539e-005  1.5380027e-008            
5.2582472e-005  1.4980453e-008            
5.2782406e-005  1.4609231e-008            
5.2982339e-005  1.4322068e-008            
5.3182273e-005  1.4211673e-008            
5.3382206e-005  1.3934488e-008            
5.3582139e-005  1.3642786e-008            
5.3782073e-005  1.3579884e-008            
5.3982006e-005  1.3296184e-008            
5.4181939e-005  1.2959604e-008            
5.4381873e-005  1.2478633e-008            
5.4581806e-005  1.2222985e-008            
5.4781739e-005  1.2151602e-008            
5.4981673e-005  1.191158e-008            
5.5181606e-005  1.1394699e-008            
5.5381539e-005  1.0915025e-008            
5.5581473e-005  1.0561723e-008            
5.5781406e-005  1.0389717e-008            
5.598134e-005  1.0158636e-008            
5.6181273e-005  9.6974552e-009            
5.6381206e-005  9.5325528e-009            
5.658114e-005  9.2269141e-009            
5.6781073e-005  8.9042267e-009            
5.6981006e-005  8.5641226e-009            
5.718094e-005  8.2967129e-009            
5.7380873e-005  8.2004972e-009            
5.7580806e-005  7.8987087e-009            
5.778074e-005  7.411821e-009            
5.7980673e-005  6.8267326e-009            
5.8180606e-005  6.4973146e-009            
5.838054e-005  6.2520402e-009            
5.8580473e-005  5.8908488e-009            
5.8780407e-005  5.1882478e-009            
5.898034e-005  4.6908663e-009            
5.9180273e-005  4.3437405e-009            
5.9380207e-005  3.922115e-009            
5.958014e-005  3.4352839e-009            
5.9780073e-005  2.9000991e-009            
5.9980007e-005  2.4034636e-009            
6.017994e-005  1.7243496e-009            
6.0379873e-005  1.1205803e-009            
6.0579807e-005  7.0674324e-010            
6.077974e-005  5.7531703e-010            
6.0979673e-005  5.1382573e-010            
6.1179607e-005  1.0517316e-010            
6.137954e-005  -6.4137458e-010            
6.1579473e-005  -1.2409404e-009            
6.1779407e-005  -1.5924518e-009            
6.197934e-005  -2.0328539e-009            
6.2179274e-005  -2.4256418e-009            
6.2379207e-005  -3.0648965e-009            
6.257914e-005  -3.5232252e-009            
6.2779074e-005  -3.9796986e-009            
6.2979007e-005  -4.4960329e-009            
6.317894e-005  -4.7810763e-009            
6.3378874e-005  -5.2153014e-009            
6.3578807e-005  -5.58322e-009            
6.377874e-005  -6.2273226e-009            
6.3978674e-005  -7.0322626e-009            
6.4178607e-005  -7.6389669e-009            
6.437854e-005  -7.9762963e-009            
6.4578474e-005  -8.2350426e-009            
6.4778407e-005  -8.808329e-009            
6.4978341e-005  -9.5416135e-009            
6.5178274e-005  -1.0297811e-008            
6.5378207e-005  -1.0828194e-008            
6.5578141e-005  -1.1191851e-008            
6.5778074e-005  -1.1547448e-008            
6.5978007e-005  -1.2319128e-008            
6.6177941e-005  -1.2950577e-008            
6.6377874e-005  -1.3671795e-008            
6.6577807e-005  -1.4254589e-008            
6.6777741e-005  -1.4773549e-008            
6.6977674e-005  -1.5223968e-008            
6.7177607e-005  -1.5871466e-008            
6.7377541e-005  -1.6587392e-008            
6.7577474e-005  -1.7360361e-008            
6.7777407e-005  -1.8193777e-008            
6.7977341e-005  -1.8670156e-008            
6.8177274e-005  -1.9174712e-008            
6.8377208e-005  -1.9902243e-008            
6.8577141e-005  -2.0748357e-008            
6.8777074e-005  -2.1563021e-008            
6.8977008e-005  -2.1966711e-008            
6.9176941e-005  -2.2410385e-008            
6.9376874e-005  -2.3116574e-008            
6.9576808e-005  -2.3974222e-008            
6.9776741e-005  -2.4718141e-008            
6.9976674e-005  -2.5327418e-008            
7.0176608e-005  -2.5873191e-008            
7.0376541e-005  -2.6358215e-008            
7.0576474e-005  -2.6823252e-008            
7.0776408e-005  -2.7283006e-008            
7.0976341e-005  -2.8107432e-008            
7.1176275e-005  -2.9092138e-008            
7.1376208e-005  -2.961019e-008            
7.1576141e-005  -3.0107599e-008            
7.1776075e-005  -3.0432968e-008            
7.1976008e-005  -3.1333662e-008            
7.2175941e-005  -3.2222257e-008            
7.2375875e-005  -3.2912615e-008            
7.2575808e-005  -3.3407189e-008            
7.2775741e-005  -3.4030437e-008            
7.2975675e-005  -3.4864241e-008            
7.3175608e-005  -3.5876606e-008            
7.3375541e-005  -3.6856164e-008            
7.3575475e-005  -3.7540207e-008            
7.3775408e-005  -3.8273379e-008            
7.3975342e-005  -3.9117416e-008            
7.4175275e-005  -3.9877212e-008            
7.4375208e-005  -4.065573e-008            
7.4575142e-005  -4.1783845e-008            
7.4775075e-005  -4.2692611e-008            
7.4975008e-005  -4.368762e-008            
7.5174942e-005  -4.4225772e-008            
7.5374875e-005  -4.490149e-008            
7.5574808e-005  -4.6031568e-008            
7.5774742e-005  -4.7022139e-008            
7.5974675e-005  -4.7950698e-008            
7.6174608e-005  -4.8723128e-008            
7.6374542e-005  -4.9345822e-008            
7.6574475e-005  -5.0073999e-008            
7.6774408e-005  -5.1010685e-008            
7.6974342e-005  -5.1791524e-008            
7.7174275e-005  -5.2840611e-008            
7.7374209e-005  -5.3845597e-008            
7.7574142e-005  -5.4750339e-008            
7.7774075e-005  -5.5502759e-008            
7.7974009e-005  -5.62217e-008            
7.8173942e-005  -5.7147632e-008            
7.8373875e-005  -5.8184743e-008            
7.8573809e-005  -5.9089581e-008            
7.8773742e-005  -5.9734196e-008            
7.8973675e-005  -6.0366864e-008            
7.9173609e-005  -6.130207e-008            
7.9373542e-005  -6.218909e-008            
7.9573475e-005  -6.2920619e-008            
7.9773409e-005  -6.3598013e-008            
7.9973342e-005  -6.4274529e-008            
8.0173276e-005  -6.4784857e-008            
8.0373209e-005  -6.5534164e-008            
8.0573142e-005  -6.6181158e-008            
8.0773076e-005  -6.7087556e-008            
8.0973009e-005  -6.7986725e-008            
8.1172942e-005  -6.8605592e-008            
8.1372876e-005  -6.9114199e-008            
8.1572809e-005  -6.9430249e-008            
8.1772742e-005  -7.0192603e-008            
8.1972676e-005  -7.1163062e-008            
8.2172609e-005  -7.2020333e-008            
8.2372542e-005  -7.2665485e-008            
8.2572476e-005  -7.3031645e-008            
8.2772409e-005  -7.3720593e-008            
8.2972343e-005  -7.4770128e-008            
8.3172276e-005  -7.5572636e-008            
8.3372209e-005  -7.6383983e-008            
8.3572143e-005  -7.7132684e-008            
8.3772076e-005  -7.7861181e-008            
8.3972009e-005  -7.869836e-008            
8.4171943e-005  -7.9487377e-008            
8.4371876e-005  -8.0407223e-008            
8.4571809e-005  -8.1595497e-008            
8.4771743e-005  -8.2364155e-008            
8.4971676e-005  -8.2895828e-008            
8.5171609e-005  -8.3504816e-008            
8.5371543e-005  -8.4326173e-008            
8.5571476e-005  -8.5252822e-008            
8.5771409e-005  -8.6051268e-008            
8.5971343e-005  -8.6474274e-008            
8.6171276e-005  -8.6908863e-008            
8.637121e-005  -8.7583841e-008            
8.6571143e-005  -8.8488853e-008            
8.6771076e-005  -8.9297654e-008            
8.697101e-005  -8.9993259e-008            
8.7170943e-005  -9.0739223e-008            
8.7370876e-005  -9.1127236e-008            
8.757081e-005  -9.1785228e-008            
8.7770743e-005  -9.2505647e-008            
8.7970676e-005  -9.3374058e-008            
8.817061e-005  -9.4112229e-008            
8.8370543e-005  -9.4574955e-008            
8.8570476e-005  -9.4882151e-008            
8.877041e-005  -9.5426207e-008            
8.8970343e-005  -9.5933352e-008            
8.9170277e-005  -9.65987e-008            
8.937021e-005  -9.7107855e-008            
8.9570143e-005  -9.7299983e-008            
8.9770077e-005  -9.756751e-008            
8.997001e-005  -9.7784679e-008            
9.0169943e-005  -9.8134675e-008            
9.0369877e-005  -9.8586135e-008            
9.056981e-005  -9.8962625e-008            
9.0769743e-005  -9.9415626e-008            
9.0969677e-005  -9.9409343e-008            
9.116961e-005  -9.9606938e-008            
9.1369543e-005  -9.9855749e-008            
