Surface Profile             
x       y           
[m]     [m]         
0  2.2268321e-009            
1.9993336e-007  2.6949998e-009            
3.9986671e-007  3.4105664e-009            
5.9980007e-007  3.814428e-009            
7.9973342e-007  4.5971353e-009            
9.9966678e-007  5.2828501e-009            
1.1996001e-006  5.8846488e-009            
1.3995335e-006  6.3167259e-009            
1.5994668e-006  7.0488973e-009            
1.7994002e-006  7.9550428e-009            
1.9993336e-006  8.8098769e-009            
2.1992669e-006  9.8058802e-009            
2.3992003e-006  1.1019932e-008            
2.5991336e-006  1.2034196e-008            
2.799067e-006  1.3027819e-008            
2.9990003e-006  1.384344e-008            
3.1989337e-006  1.4972432e-008            
3.398867e-006  1.6531987e-008            
3.5988004e-006  1.7926386e-008            
3.7987338e-006  1.9137829e-008            
3.9986671e-006  2.0309969e-008            
4.1986005e-006  2.1706902e-008            
4.3985338e-006  2.3354252e-008            
4.5984672e-006  2.489793e-008            
4.7984005e-006  2.6672483e-008            
4.9983339e-006  2.8409631e-008            
5.1982672e-006  3.0133014e-008            
5.3982006e-006  3.192094e-008            
5.598134e-006  3.3710384e-008            
5.7980673e-006  3.5811644e-008            
5.9980007e-006  3.7650706e-008            
6.197934e-006  3.9463714e-008            
6.3978674e-006  4.1173913e-008            
6.5978007e-006  4.2852045e-008            
6.7977341e-006  4.5063515e-008            
6.9976674e-006  4.7230396e-008            
7.1976008e-006  4.9216718e-008            
7.3975342e-006  5.112661e-008            
7.5974675e-006  5.2917867e-008            
7.7974009e-006  5.4823039e-008            
7.9973342e-006  5.689236e-008            
8.1972676e-006  5.9008035e-008            
8.3972009e-006  6.1034079e-008            
8.5971343e-006  6.3170328e-008            
8.7970676e-006  6.5276884e-008            
8.997001e-006  6.7602675e-008            
9.1969344e-006  6.9998688e-008            
9.3968677e-006  7.223869e-008            
9.5968011e-006  7.4693615e-008            
9.7967344e-006  7.6849773e-008            
9.9966678e-006  7.8945659e-008            
1.0196601e-005  8.1219028e-008            
1.0396534e-005  8.3571304e-008            
1.0596468e-005  8.5835991e-008            
1.0796401e-005  8.8153456e-008            
1.0996335e-005  9.0219982e-008            
1.1196268e-005  9.2126399e-008            
1.1396201e-005  9.3980624e-008            
1.1596135e-005  9.5919293e-008            
1.1796068e-005  9.7853416e-008            
1.1996001e-005  9.9947669e-008            
1.2195935e-005  1.016697e-007            
1.2395868e-005  1.031877e-007            
1.2595801e-005  1.0481437e-007            
1.2795735e-005  1.0643314e-007            
1.2995668e-005  1.081089e-007            
1.3195601e-005  1.0963895e-007            
1.3395535e-005  1.1079567e-007            
1.3595468e-005  1.1214559e-007            
1.3795402e-005  1.1352348e-007            
1.3995335e-005  1.1476791e-007            
1.4195268e-005  1.1609934e-007            
1.4395202e-005  1.1738704e-007            
1.4595135e-005  1.1855322e-007            
1.4795068e-005  1.1972543e-007            
1.4995002e-005  1.2077285e-007            
1.5194935e-005  1.2185751e-007            
1.5394868e-005  1.2309534e-007            
1.5594802e-005  1.2422919e-007            
1.5794735e-005  1.2517282e-007            
1.5994668e-005  1.2607966e-007            
1.6194602e-005  1.27042e-007            
1.6394535e-005  1.2802936e-007            
1.6594469e-005  1.2906692e-007            
1.6794402e-005  1.2970989e-007            
1.6994335e-005  1.3049012e-007            
1.7194269e-005  1.3117073e-007            
1.7394202e-005  1.3204339e-007            
1.7594135e-005  1.329954e-007            
1.7794069e-005  1.3386871e-007            
1.7994002e-005  1.3450092e-007            
1.8193935e-005  1.3517531e-007            
1.8393869e-005  1.3593725e-007            
1.8593802e-005  1.3672636e-007            
1.8793735e-005  1.3763801e-007            
1.8993669e-005  1.3851057e-007            
1.9193602e-005  1.3928816e-007            
1.9393535e-005  1.4011437e-007            
1.9593469e-005  1.4079528e-007            
1.9793402e-005  1.4156226e-007            
1.9993336e-005  1.4270456e-007            
2.0193269e-005  1.4388e-007            
2.0393202e-005  1.4468997e-007            
2.0593136e-005  1.4551091e-007            
2.0793069e-005  1.4622701e-007            
2.0993002e-005  1.4738589e-007            
2.1192936e-005  1.4827949e-007            
2.1392869e-005  1.4908962e-007            
2.1592802e-005  1.5000749e-007            
2.1792736e-005  1.5113794e-007            
2.1992669e-005  1.5221108e-007            
2.2192602e-005  1.5312699e-007            
2.2392536e-005  1.5408645e-007            
2.2592469e-005  1.5517893e-007            
2.2792403e-005  1.5640934e-007            
2.2992336e-005  1.5746907e-007            
2.3192269e-005  1.5837913e-007            
2.3392203e-005  1.593571e-007            
2.3592136e-005  1.6062986e-007            
2.3792069e-005  1.6203106e-007            
2.3992003e-005  1.629888e-007            
2.4191936e-005  1.6400668e-007            
2.4391869e-005  1.6504922e-007            
2.4591803e-005  1.6638121e-007            
2.4791736e-005  1.6765106e-007            
2.4991669e-005  1.6875057e-007            
2.5191603e-005  1.7002349e-007            
2.5391536e-005  1.7116322e-007            
2.5591469e-005  1.7232282e-007            
2.5791403e-005  1.7324938e-007            
2.5991336e-005  1.7414828e-007            
2.619127e-005  1.7543084e-007            
2.6391203e-005  1.769333e-007            
2.6591136e-005  1.7805484e-007            
2.679107e-005  1.7883338e-007            
2.6991003e-005  1.797929e-007            
2.7190936e-005  1.8075601e-007            
2.739087e-005  1.8200948e-007            
2.7590803e-005  1.8279769e-007            
2.7790736e-005  1.8375031e-007            
2.799067e-005  1.8466952e-007            
2.8190603e-005  1.8557787e-007            
2.8390536e-005  1.8635535e-007            
2.859047e-005  1.8705478e-007            
2.8790403e-005  1.8782868e-007            
2.8990337e-005  1.887426e-007            
2.919027e-005  1.8928696e-007            
2.9390203e-005  1.8973868e-007            
2.9590137e-005  1.9037663e-007            
2.979007e-005  1.9128563e-007            
2.9990003e-005  1.9221532e-007            
3.0189937e-005  1.9271095e-007            
3.038987e-005  1.93041e-007            
3.0589803e-005  1.9344215e-007            
3.0789737e-005  1.9400671e-007            
3.098967e-005  1.9462447e-007            
3.1189603e-005  1.9493697e-007            
3.1389537e-005  1.9526387e-007            
3.158947e-005  1.9559748e-007            
3.1789404e-005  1.9587639e-007            
3.1989337e-005  1.9605721e-007            
3.218927e-005  1.9622009e-007            
3.2389204e-005  1.9653022e-007            
3.2589137e-005  1.9685609e-007            
3.278907e-005  1.9694441e-007            
3.2989004e-005  1.967774e-007            
3.3188937e-005  1.9679196e-007            
3.338887e-005  1.9704131e-007            
3.3588804e-005  1.9745991e-007            
3.3788737e-005  1.9754639e-007            
3.398867e-005  1.972885e-007            
3.4188604e-005  1.9729789e-007            
3.4388537e-005  1.975338e-007            
3.458847e-005  1.9770008e-007            
3.4788404e-005  1.97679e-007            
3.4988337e-005  1.9753295e-007            
3.5188271e-005  1.9748105e-007            
3.5388204e-005  1.9746456e-007            
3.5588137e-005  1.9743609e-007            
3.5788071e-005  1.9756677e-007            
3.5988004e-005  1.9762866e-007            
3.6187937e-005  1.9751589e-007            
3.6387871e-005  1.9741466e-007            
3.6587804e-005  1.9704546e-007            
3.6787737e-005  1.9705463e-007            
3.6987671e-005  1.9714506e-007            
3.7187604e-005  1.9718558e-007            
3.7387537e-005  1.9698974e-007            
3.7587471e-005  1.9674461e-007            
3.7787404e-005  1.9658388e-007            
3.7987338e-005  1.9640978e-007            
3.8187271e-005  1.9647309e-007            
3.8387204e-005  1.9653337e-007            
3.8587138e-005  1.9649648e-007            
3.8787071e-005  1.9639253e-007            
3.8987004e-005  1.9605652e-007            
3.9186938e-005  1.9585819e-007            
3.9386871e-005  1.9602635e-007            
3.9586804e-005  1.9609316e-007            
3.9786738e-005  1.9597257e-007            
3.9986671e-005  1.9574038e-007            
4.0186604e-005  1.9535561e-007            
4.0386538e-005  1.9524551e-007            
4.0586471e-005  1.9515472e-007            
4.0786405e-005  1.9501344e-007            
4.0986338e-005  1.9488358e-007            
4.1186271e-005  1.9465732e-007            
4.1386205e-005  1.9461238e-007            
4.1586138e-005  1.9459251e-007            
4.1786071e-005  1.9448855e-007            
4.1986005e-005  1.9442301e-007            
4.2185938e-005  1.9430944e-007            
4.2385871e-005  1.9402825e-007            
4.2585805e-005  1.9403386e-007            
4.2785738e-005  1.9386461e-007            
4.2985671e-005  1.9362232e-007            
4.3185605e-005  1.9338228e-007            
4.3385538e-005  1.9318567e-007            
4.3585471e-005  1.931658e-007            
4.3785405e-005  1.9296365e-007            
4.3985338e-005  1.9272739e-007            
4.4185272e-005  1.927168e-007            
4.4385205e-005  1.9284353e-007            
4.4585138e-005  1.9270655e-007            
4.4785072e-005  1.9249772e-007            
4.4985005e-005  1.9223416e-007            
4.5184938e-005  1.92009e-007            
4.5384872e-005  1.9198864e-007            
4.5584805e-005  1.9173388e-007            
4.5784738e-005  1.9157661e-007            
4.5984672e-005  1.9121341e-007            
4.6184605e-005  1.9093733e-007            
4.6384538e-005  1.9062789e-007            
4.6584472e-005  1.9038202e-007            
4.6784405e-005  1.9013311e-007            
4.6984339e-005  1.8995912e-007            
4.7184272e-005  1.8974017e-007            
4.7384205e-005  1.8948012e-007            
4.7584139e-005  1.8904044e-007            
4.7784072e-005  1.8855827e-007            
4.7984005e-005  1.881902e-007            
4.8183939e-005  1.8764444e-007            
4.8383872e-005  1.8712934e-007            
4.8583805e-005  1.8635414e-007            
4.8783739e-005  1.8554383e-007            
4.8983672e-005  1.848247e-007            
4.9183605e-005  1.8411628e-007            
4.9383539e-005  1.8349091e-007            
4.9583472e-005  1.8241779e-007            
4.9783406e-005  1.8120754e-007            
4.9983339e-005  1.8023052e-007            
5.0183272e-005  1.7931196e-007            
5.0383206e-005  1.7844046e-007            
5.0583139e-005  1.7731277e-007            
5.0783072e-005  1.761618e-007            
5.0983006e-005  1.7506338e-007            
5.1182939e-005  1.7383831e-007            
5.1382872e-005  1.72699e-007            
5.1582806e-005  1.7166993e-007            
5.1782739e-005  1.7048267e-007            
5.1982672e-005  1.6932018e-007            
5.2182606e-005  1.6785689e-007            
5.2382539e-005  1.6650902e-007            
5.2582472e-005  1.6542399e-007            
5.2782406e-005  1.6433974e-007            
5.2982339e-005  1.6310789e-007            
5.3182273e-005  1.6164361e-007            
5.3382206e-005  1.6008928e-007            
5.3582139e-005  1.5875648e-007            
5.3782073e-005  1.5759357e-007            
5.3982006e-005  1.5637866e-007            
5.4181939e-005  1.5515355e-007            
5.4381873e-005  1.5381298e-007            
5.4581806e-005  1.5227618e-007            
5.4781739e-005  1.5095099e-007            
5.4981673e-005  1.4977857e-007            
5.5181606e-005  1.4888854e-007            
5.5381539e-005  1.4776035e-007            
5.5581473e-005  1.4627894e-007            
5.5781406e-005  1.4504489e-007            
5.598134e-005  1.4385899e-007            
5.6181273e-005  1.4323699e-007            
5.6381206e-005  1.4239397e-007            
5.658114e-005  1.4144487e-007            
5.6781073e-005  1.4052183e-007            
5.6981006e-005  1.3948128e-007            
5.718094e-005  1.3857702e-007            
5.7380873e-005  1.3780607e-007            
5.7580806e-005  1.3701413e-007            
5.778074e-005  1.36173e-007            
5.7980673e-005  1.3529086e-007            
5.8180606e-005  1.3424139e-007            
5.838054e-005  1.3348521e-007            
5.8580473e-005  1.3273079e-007            
5.8780407e-005  1.322485e-007            
5.898034e-005  1.3160775e-007            
5.9180273e-005  1.3095562e-007            
5.9380207e-005  1.3017967e-007            
5.958014e-005  1.2957848e-007            
5.9780073e-005  1.2934571e-007            
5.9980007e-005  1.2925349e-007            
6.017994e-005  1.2885683e-007            
6.0379873e-005  1.2835833e-007            
6.0579807e-005  1.2783236e-007            
6.077974e-005  1.274628e-007            
6.0979673e-005  1.2756531e-007            
6.1179607e-005  1.2736286e-007            
6.137954e-005  1.2701789e-007            
6.1579473e-005  1.2660712e-007            
6.1779407e-005  1.2615129e-007            
6.197934e-005  1.2602579e-007            
6.2179274e-005  1.2585643e-007            
6.2379207e-005  1.2566608e-007            
6.257914e-005  1.2571639e-007            
6.2779074e-005  1.2570124e-007            
6.2979007e-005  1.2560678e-007            
6.317894e-005  1.2549745e-007            
6.3378874e-005  1.2562682e-007            
6.3578807e-005  1.2596281e-007            
6.377874e-005  1.2613108e-007            
6.3978674e-005  1.2618426e-007            
6.4178607e-005  1.262202e-007            
6.437854e-005  1.2633615e-007            
6.4578474e-005  1.265999e-007            
6.4778407e-005  1.2693044e-007            
6.4978341e-005  1.2705374e-007            
6.5178274e-005  1.2715143e-007            
6.5378207e-005  1.2725682e-007            
6.5578141e-005  1.2763889e-007            
6.5778074e-005  1.2775042e-007            
6.5978007e-005  1.2784235e-007            
6.6177941e-005  1.2811405e-007            
6.6377874e-005  1.2825827e-007            
6.6577807e-005  1.2846774e-007            
6.6777741e-005  1.2853838e-007            
6.6977674e-005  1.288235e-007            
6.7177607e-005  1.2920659e-007            
6.7377541e-005  1.2960781e-007            
6.7577474e-005  1.298302e-007            
6.7777407e-005  1.3016673e-007            
6.7977341e-005  1.3051508e-007            
6.8177274e-005  1.3098847e-007            
6.8377208e-005  1.3153459e-007            
6.8577141e-005  1.3182696e-007            
6.8777074e-005  1.3233944e-007            
6.8977008e-005  1.3267619e-007            
6.9176941e-005  1.3299739e-007            
6.9376874e-005  1.3333168e-007            
6.9576808e-005  1.3366636e-007            
6.9776741e-005  1.3408788e-007            
6.9976674e-005  1.3441682e-007            
7.0176608e-005  1.3448899e-007            
7.0376541e-005  1.3461602e-007            
7.0576474e-005  1.3492141e-007            
7.0776408e-005  1.3515513e-007            
7.0976341e-005  1.3537875e-007            
7.1176275e-005  1.3540188e-007            
7.1376208e-005  1.3560344e-007            
7.1576141e-005  1.3567996e-007            
7.1776075e-005  1.3570059e-007            
7.1976008e-005  1.3567927e-007            
7.2175941e-005  1.3566185e-007            
7.2375875e-005  1.357055e-007            
7.2575808e-005  1.3556134e-007            
7.2775741e-005  1.3522234e-007            
7.2975675e-005  1.3504085e-007            
7.3175608e-005  1.3484963e-007            
7.3375541e-005  1.3482338e-007            
7.3575475e-005  1.347362e-007            
7.3775408e-005  1.34411e-007            
7.3975342e-005  1.3414438e-007            
7.4175275e-005  1.337403e-007            
7.4375208e-005  1.3352925e-007            
7.4575142e-005  1.3336134e-007            
7.4775075e-005  1.3300216e-007            
7.4975008e-005  1.3272366e-007            
7.5174942e-005  1.3248249e-007            
7.5374875e-005  1.3221636e-007            
7.5574808e-005  1.3209135e-007            
7.5774742e-005  1.3183404e-007            
7.5974675e-005  1.3140504e-007            
7.6174608e-005  1.3097693e-007            
7.6374542e-005  1.3050784e-007            
7.6574475e-005  1.3017717e-007            
7.6774408e-005  1.298076e-007            
7.6974342e-005  1.2908917e-007            
7.7174275e-005  1.284583e-007            
7.7374209e-005  1.278839e-007            
7.7574142e-005  1.2722442e-007            
7.7774075e-005  1.2656676e-007            
7.7974009e-005  1.2583928e-007            
7.8173942e-005  1.2514368e-007            
7.8373875e-005  1.2443522e-007            
7.8573809e-005  1.2354767e-007            
7.8773742e-005  1.2272583e-007            
7.8973675e-005  1.2201255e-007            
7.9173609e-005  1.2154582e-007            
7.9373542e-005  1.2115837e-007            
7.9573475e-005  1.2038106e-007            
7.9773409e-005  1.1965849e-007            
7.9973342e-005  1.1905403e-007            
8.0173276e-005  1.1871776e-007            
8.0373209e-005  1.182516e-007            
8.0573142e-005  1.1757875e-007            
8.0773076e-005  1.1698158e-007            
8.0973009e-005  1.1628915e-007            
8.1172942e-005  1.1584328e-007            
8.1372876e-005  1.1555906e-007            
8.1572809e-005  1.1507506e-007            
8.1772742e-005  1.1457666e-007            
8.1972676e-005  1.1394538e-007            
8.2172609e-005  1.1316503e-007            
8.2372542e-005  1.1233923e-007            
8.2572476e-005  1.116708e-007            
8.2772409e-005  1.1102665e-007            
8.2972343e-005  1.1022246e-007            
8.3172276e-005  1.0910612e-007            
8.3372209e-005  1.0786582e-007            
8.3572143e-005  1.0709763e-007            
8.3772076e-005  1.0639325e-007            
8.3972009e-005  1.055959e-007            
8.4171943e-005  1.0468859e-007            
8.4371876e-005  1.0362333e-007            
8.4571809e-005  1.0286169e-007            
8.4771743e-005  1.0203048e-007            
8.4971676e-005  1.0127558e-007            
8.5171609e-005  1.0068484e-007            
8.5371543e-005  1.0016655e-007            
8.5571476e-005  9.9537395e-008            
8.5771409e-005  9.8602037e-008            
8.5971343e-005  9.7755538e-008            
8.6171276e-005  9.737091e-008            
8.637121e-005  9.6965987e-008            
8.6571143e-005  9.6353949e-008            
8.6771076e-005  9.5445109e-008            
8.697101e-005  9.4575568e-008            
8.7170943e-005  9.406158e-008            
8.7370876e-005  9.3542754e-008            
8.757081e-005  9.2991058e-008            
8.7770743e-005  9.222691e-008            
8.7970676e-005  9.1542619e-008            
8.817061e-005  9.1131541e-008            
8.8370543e-005  9.0394979e-008            
8.8570476e-005  8.9835806e-008            
8.877041e-005  8.9325215e-008            
8.8970343e-005  8.8681644e-008            
8.9170277e-005  8.8007448e-008            
8.937021e-005  8.7222434e-008            
8.9570143e-005  8.6433022e-008            
8.9770077e-005  8.5976339e-008            
8.997001e-005  8.54644e-008            
9.0169943e-005  8.4721349e-008            
9.0369877e-005  8.3942881e-008            
9.056981e-005  8.3288097e-008            
9.0769743e-005  8.2649776e-008            
9.0969677e-005  8.2183046e-008            
9.116961e-005  8.1457904e-008            
9.1369543e-005  8.0695035e-008            
9.1569477e-005  7.9858487e-008            
9.176941e-005  7.8885451e-008            
9.1969344e-005  7.8064391e-008            
9.2169277e-005  7.72524e-008            
9.236921e-005  7.6395431e-008            
9.2569144e-005  7.5609795e-008            
9.2769077e-005  7.455496e-008            
9.296901e-005  7.3639288e-008            
