Surface Profile             
x       y           
[m]     [m]         
0  -1.0366417e-008            
1.9993336e-007  -1.4331002e-008            
3.9986671e-007  -1.7677879e-008            
5.9980007e-007  -2.0371762e-008            
7.9973342e-007  -2.3113918e-008            
9.9966678e-007  -2.5284966e-008            
1.1996001e-006  -2.7363663e-008            
1.3995335e-006  -2.9959927e-008            
1.5994668e-006  -3.2775413e-008            
1.7994002e-006  -3.5827257e-008            
1.9993336e-006  -3.8640907e-008            
2.1992669e-006  -4.1775352e-008            
2.3992003e-006  -4.500589e-008            
2.5991336e-006  -4.819865e-008            
2.799067e-006  -5.1588246e-008            
2.9990003e-006  -5.4898445e-008            
3.1989337e-006  -5.8188177e-008            
3.398867e-006  -6.1350745e-008            
3.5988004e-006  -6.4372984e-008            
3.7987338e-006  -6.7431907e-008            
3.9986671e-006  -7.0597812e-008            
4.1986005e-006  -7.3649312e-008            
4.3985338e-006  -7.6509607e-008            
4.5984672e-006  -7.8999032e-008            
4.7984005e-006  -8.1655613e-008            
4.9983339e-006  -8.4368997e-008            
5.1982672e-006  -8.7056739e-008            
5.3982006e-006  -8.9763637e-008            
5.598134e-006  -9.2259519e-008            
5.7980673e-006  -9.4728223e-008            
5.9980007e-006  -9.7464455e-008            
6.197934e-006  -1.0026886e-007            
6.3978674e-006  -1.0286873e-007            
6.5978007e-006  -1.052609e-007            
6.7977341e-006  -1.0758836e-007            
6.9976674e-006  -1.1000604e-007            
7.1976008e-006  -1.1246485e-007            
7.3975342e-006  -1.1482246e-007            
7.5974675e-006  -1.1720328e-007            
7.7974009e-006  -1.192852e-007            
7.9973342e-006  -1.2139272e-007            
8.1972676e-006  -1.2349927e-007            
8.3972009e-006  -1.2535857e-007            
8.5971343e-006  -1.2715898e-007            
8.7970676e-006  -1.2894756e-007            
8.997001e-006  -1.3069729e-007            
9.1969344e-006  -1.3231321e-007            
9.3968677e-006  -1.3374614e-007            
9.5968011e-006  -1.3518227e-007            
9.7967344e-006  -1.3661851e-007            
9.9966678e-006  -1.3768869e-007            
1.0196601e-005  -1.3875611e-007            
1.0396534e-005  -1.3940898e-007            
1.0596468e-005  -1.4029925e-007            
1.0796401e-005  -1.4115996e-007            
1.0996335e-005  -1.4190336e-007            
1.1196268e-005  -1.42346e-007            
1.1396201e-005  -1.4258337e-007            
1.1596135e-005  -1.4290983e-007            
1.1796068e-005  -1.4311731e-007            
1.1996001e-005  -1.4330029e-007            
1.2195935e-005  -1.434213e-007            
1.2395868e-005  -1.4335629e-007            
1.2595801e-005  -1.4321428e-007            
1.2795735e-005  -1.4298961e-007            
1.2995668e-005  -1.4269754e-007            
1.3195601e-005  -1.4220161e-007            
1.3395535e-005  -1.4189502e-007            
1.3595468e-005  -1.4129265e-007            
1.3795402e-005  -1.4079919e-007            
1.3995335e-005  -1.4014191e-007            
1.4195268e-005  -1.3938396e-007            
1.4395202e-005  -1.3863721e-007            
1.4595135e-005  -1.3789461e-007            
1.4795068e-005  -1.3702269e-007            
1.4995002e-005  -1.3608808e-007            
1.5194935e-005  -1.35182e-007            
1.5394868e-005  -1.3430286e-007            
1.5594802e-005  -1.3330989e-007            
1.5794735e-005  -1.3224083e-007            
1.5994668e-005  -1.3105794e-007            
1.6194602e-005  -1.2991116e-007            
1.6394535e-005  -1.2858031e-007            
1.6594469e-005  -1.2738211e-007            
1.6794402e-005  -1.261241e-007            
1.6994335e-005  -1.2492919e-007            
1.7194269e-005  -1.2356619e-007            
1.7394202e-005  -1.2222661e-007            
1.7594135e-005  -1.2109111e-007            
1.7794069e-005  -1.197051e-007            
1.7994002e-005  -1.1838394e-007            
1.8193935e-005  -1.1700948e-007            
1.8393869e-005  -1.1576219e-007            
1.8593802e-005  -1.1444634e-007            
1.8793735e-005  -1.1305013e-007            
1.8993669e-005  -1.1164843e-007            
1.9193602e-005  -1.1009891e-007            
1.9393535e-005  -1.0864878e-007            
1.9593469e-005  -1.0721992e-007            
1.9793402e-005  -1.0580924e-007            
1.9993336e-005  -1.0435031e-007            
2.0193269e-005  -1.0303798e-007            
2.0393202e-005  -1.0147518e-007            
2.0593136e-005  -1.00259e-007            
2.0793069e-005  -9.8958696e-008            
2.0993002e-005  -9.7383021e-008            
2.1192936e-005  -9.5744537e-008            
2.1392869e-005  -9.4010059e-008            
2.1592802e-005  -9.2425215e-008            
2.1792736e-005  -9.0700139e-008            
2.1992669e-005  -8.9093689e-008            
2.2192602e-005  -8.7322604e-008            
2.2392536e-005  -8.5523729e-008            
2.2592469e-005  -8.3651818e-008            
2.2792403e-005  -8.1938771e-008            
2.2992336e-005  -8.0111688e-008            
2.3192269e-005  -7.8305399e-008            
2.3392203e-005  -7.664292e-008            
2.3592136e-005  -7.4972123e-008            
2.3792069e-005  -7.3194809e-008            
2.3992003e-005  -7.1358051e-008            
2.4191936e-005  -6.9790575e-008            
2.4391869e-005  -6.8373312e-008            
2.4591803e-005  -6.6976341e-008            
2.4791736e-005  -6.5367633e-008            
2.4991669e-005  -6.3651681e-008            
2.5191603e-005  -6.1906938e-008            
2.5391536e-005  -6.0430629e-008            
2.5591469e-005  -5.8906176e-008            
2.5791403e-005  -5.7322281e-008            
2.5991336e-005  -5.5599289e-008            
2.619127e-005  -5.3642771e-008            
2.6391203e-005  -5.1735893e-008            
2.6591136e-005  -5.0003175e-008            
2.679107e-005  -4.8165682e-008            
2.6991003e-005  -4.6378844e-008            
2.7190936e-005  -4.4395805e-008            
2.739087e-005  -4.2505496e-008            
2.7590803e-005  -4.0560742e-008            
2.7790736e-005  -3.857087e-008            
2.799067e-005  -3.6610072e-008            
2.8190603e-005  -3.4612903e-008            
2.8390536e-005  -3.2797165e-008            
2.859047e-005  -3.0710221e-008            
2.8790403e-005  -2.8641148e-008            
2.8990337e-005  -2.677291e-008            
2.919027e-005  -2.5060005e-008            
2.9390203e-005  -2.3055229e-008            
2.9590137e-005  -2.1016347e-008            
2.979007e-005  -1.8876445e-008            
2.9990003e-005  -1.6867114e-008            
3.0189937e-005  -1.5154128e-008            
3.038987e-005  -1.3220815e-008            
3.0589803e-005  -1.1143286e-008            
3.0789737e-005  -9.1259351e-009            
3.098967e-005  -7.1380457e-009            
3.1189603e-005  -5.357883e-009            
3.1389537e-005  -3.4828097e-009            
3.158947e-005  -1.4946659e-009            
3.1789404e-005  4.3051624e-010            
3.1989337e-005  2.4215415e-009            
3.218927e-005  4.4164324e-009            
3.2389204e-005  6.054893e-009            
3.2589137e-005  7.6519358e-009            
3.278907e-005  9.1693434e-009            
3.2989004e-005  1.1147637e-008            
3.3188937e-005  1.3115936e-008            
3.338887e-005  1.4862598e-008            
3.3588804e-005  1.6297638e-008            
3.3788737e-005  1.7611252e-008            
3.398867e-005  1.9258209e-008            
3.4188604e-005  2.0812962e-008            
3.4388537e-005  2.2174493e-008            
3.458847e-005  2.3484652e-008            
3.4788404e-005  2.4869464e-008            
3.4988337e-005  2.6366951e-008            
3.5188271e-005  2.7703651e-008            
3.5388204e-005  2.9096559e-008            
3.5588137e-005  3.0740368e-008            
3.5788071e-005  3.2518205e-008            
3.5988004e-005  3.3890047e-008            
3.6187937e-005  3.5136377e-008            
3.6387871e-005  3.6505459e-008            
3.6587804e-005  3.8373406e-008            
3.6787737e-005  4.018666e-008            
3.6987671e-005  4.1622586e-008            
3.7187604e-005  4.3027136e-008            
3.7387537e-005  4.4457162e-008            
3.7587471e-005  4.6103341e-008            
3.7787404e-005  4.7704341e-008            
3.7987338e-005  4.9146408e-008            
3.8187271e-005  5.0614301e-008            
3.8387204e-005  5.218092e-008            
3.8587138e-005  5.3570963e-008            
3.8787071e-005  5.5002337e-008            
3.8987004e-005  5.6337423e-008            
3.9186938e-005  5.7841654e-008            
3.9386871e-005  5.9356317e-008            
3.9586804e-005  6.0832221e-008            
3.9786738e-005  6.2148631e-008            
3.9986671e-005  6.3361928e-008            
4.0186604e-005  6.4692004e-008            
4.0386538e-005  6.6200462e-008            
4.0586471e-005  6.7653372e-008            
4.0786405e-005  6.8885842e-008            
4.0986338e-005  7.0195692e-008            
4.1186271e-005  7.1415784e-008            
4.1386205e-005  7.2860748e-008            
4.1586138e-005  7.4053214e-008            
4.1786071e-005  7.5354194e-008            
4.1986005e-005  7.6690951e-008            
4.2185938e-005  7.7890915e-008            
4.2385871e-005  7.894326e-008            
4.2585805e-005  7.9898322e-008            
4.2785738e-005  8.1018969e-008            
4.2985671e-005  8.2387521e-008            
4.3185605e-005  8.3470658e-008            
4.3385538e-005  8.4420868e-008            
4.3585471e-005  8.5338189e-008            
4.3785405e-005  8.6442322e-008            
4.3985338e-005  8.7566288e-008            
4.4185272e-005  8.8469621e-008            
4.4385205e-005  8.9279324e-008            
4.4585138e-005  9.0321791e-008            
4.4785072e-005  9.1358566e-008            
4.4985005e-005  9.230829e-008            
4.5184938e-005  9.3323537e-008            
4.5384872e-005  9.4183786e-008            
4.5584805e-005  9.5456392e-008            
4.5784738e-005  9.6554974e-008            
4.5984672e-005  9.7426854e-008            
4.6184605e-005  9.8196767e-008            
4.6384538e-005  9.9128171e-008            
4.6584472e-005  1.0041892e-007            
4.6784405e-005  1.012869e-007            
4.6984339e-005  1.0210887e-007            
4.7184272e-005  1.0308537e-007            
4.7384205e-005  1.0411108e-007            
4.7584139e-005  1.0516884e-007            
4.7784072e-005  1.061242e-007            
4.7984005e-005  1.0681021e-007            
4.8183939e-005  1.0777069e-007            
4.8383872e-005  1.0860914e-007            
4.8583805e-005  1.0935851e-007            
4.8783739e-005  1.100892e-007            
4.8983672e-005  1.1089488e-007            
4.9183605e-005  1.1187699e-007            
4.9383539e-005  1.1264083e-007            
4.9583472e-005  1.131684e-007            
4.9783406e-005  1.1366227e-007            
4.9983339e-005  1.1438182e-007            
5.0183272e-005  1.1515928e-007            
5.0383206e-005  1.1595427e-007            
5.0583139e-005  1.1649034e-007            
5.0783072e-005  1.1706387e-007            
5.0983006e-005  1.1775553e-007            
5.1182939e-005  1.1857105e-007            
5.1382872e-005  1.1946551e-007            
5.1582806e-005  1.2034395e-007            
5.1782739e-005  1.211378e-007            
5.1982672e-005  1.2192491e-007            
5.2182606e-005  1.2262844e-007            
5.2382539e-005  1.2359144e-007            
5.2582472e-005  1.2451074e-007            
5.2782406e-005  1.255556e-007            
5.2982339e-005  1.2646115e-007            
5.3182273e-005  1.2719985e-007            
5.3382206e-005  1.2829262e-007            
5.3582139e-005  1.2924902e-007            
5.3782073e-005  1.3044882e-007            
5.3982006e-005  1.3135312e-007            
5.4181939e-005  1.3216393e-007            
5.4381873e-005  1.3291358e-007            
5.4581806e-005  1.3378605e-007            
5.4781739e-005  1.3463371e-007            
5.4981673e-005  1.3573827e-007            
5.5181606e-005  1.3668943e-007            
5.5381539e-005  1.3759076e-007            
5.5581473e-005  1.3851699e-007            
5.5781406e-005  1.3940427e-007            
5.598134e-005  1.4050206e-007            
5.6181273e-005  1.4159103e-007            
5.6381206e-005  1.4258773e-007            
5.658114e-005  1.4363071e-007            
5.6781073e-005  1.4454574e-007            
5.6981006e-005  1.4555028e-007            
5.718094e-005  1.4638956e-007            
5.7380873e-005  1.4729179e-007            
5.7580806e-005  1.4787573e-007            
5.778074e-005  1.485831e-007            
5.7980673e-005  1.4926574e-007            
5.8180606e-005  1.5003133e-007            
5.838054e-005  1.5067206e-007            
5.8580473e-005  1.5141129e-007            
5.8780407e-005  1.5208115e-007            
5.898034e-005  1.5264727e-007            
5.9180273e-005  1.5346403e-007            
5.9380207e-005  1.5412514e-007            
5.958014e-005  1.5471603e-007            
5.9780073e-005  1.5534359e-007            
5.9980007e-005  1.5579533e-007            
6.017994e-005  1.5621567e-007            
6.0379873e-005  1.5689492e-007            
6.0579807e-005  1.5753491e-007            
6.077974e-005  1.5814717e-007            
6.0979673e-005  1.586652e-007            
6.1179607e-005  1.5924799e-007            
6.137954e-005  1.602111e-007            
6.1579473e-005  1.6090544e-007            
6.1779407e-005  1.6164611e-007            
6.197934e-005  1.6231102e-007            
6.2179274e-005  1.6286079e-007            
6.2379207e-005  1.6365181e-007            
6.257914e-005  1.6439711e-007            
6.2779074e-005  1.6527265e-007            
6.2979007e-005  1.6615145e-007            
6.317894e-005  1.6715295e-007            
6.3378874e-005  1.6792916e-007            
6.3578807e-005  1.6872757e-007            
6.377874e-005  1.6956731e-007            
6.3978674e-005  1.7078114e-007            
6.4178607e-005  1.7178113e-007            
6.437854e-005  1.725879e-007            
6.4578474e-005  1.7348346e-007            
6.4778407e-005  1.7440715e-007            
6.4978341e-005  1.7566969e-007            
6.5178274e-005  1.7661296e-007            
6.5378207e-005  1.7741558e-007            
6.5578141e-005  1.7836151e-007            
6.5778074e-005  1.7956009e-007            
6.5978007e-005  1.8080367e-007            
6.6177941e-005  1.8180681e-007            
6.6377874e-005  1.8274185e-007            
6.6577807e-005  1.8395164e-007            
6.6777741e-005  1.8510097e-007            
6.6977674e-005  1.8623417e-007            
6.7177607e-005  1.8722659e-007            
6.7377541e-005  1.8842211e-007            
6.7577474e-005  1.8972252e-007            
6.7777407e-005  1.9089092e-007            
6.7977341e-005  1.9183527e-007            
6.8177274e-005  1.9284874e-007            
6.8377208e-005  1.9385035e-007            
6.8577141e-005  1.9503755e-007            
6.8777074e-005  1.9591451e-007            
6.8977008e-005  1.9655487e-007            
6.9176941e-005  1.9747125e-007            
6.9376874e-005  1.9842621e-007            
6.9576808e-005  1.9920364e-007            
6.9776741e-005  1.999933e-007            
6.9976674e-005  2.0078366e-007            
7.0176608e-005  2.0155252e-007            
7.0376541e-005  2.0240952e-007            
7.0576474e-005  2.0323989e-007            
7.0776408e-005  2.0418552e-007            
7.0976341e-005  2.0504112e-007            
7.1176275e-005  2.0590776e-007            
7.1376208e-005  2.0671793e-007            
7.1576141e-005  2.0744318e-007            
7.1776075e-005  2.0833325e-007            
7.1976008e-005  2.0908247e-007            
7.2175941e-005  2.0979236e-007            
7.2375875e-005  2.1040081e-007            
7.2575808e-005  2.1103046e-007            
7.2775741e-005  2.1180724e-007            
7.2975675e-005  2.1258654e-007            
7.3175608e-005  2.1320121e-007            
7.3375541e-005  2.1368739e-007            
7.3575475e-005  2.1414324e-007            
7.3775408e-005  2.1465387e-007            
7.3975342e-005  2.1519136e-007            
7.4175275e-005  2.1564906e-007            
7.4375208e-005  2.160573e-007            
7.4575142e-005  2.1652924e-007            
7.4775075e-005  2.1675961e-007            
7.4975008e-005  2.1702667e-007            
7.5174942e-005  2.1712202e-007            
7.5374875e-005  2.1740187e-007            
7.5574808e-005  2.1751742e-007            
7.5774742e-005  2.1728966e-007            
7.5974675e-005  2.173142e-007            
7.6174608e-005  2.1721887e-007            
7.6374542e-005  2.1698972e-007            
7.6574475e-005  2.1700645e-007            
7.6774408e-005  2.1678991e-007            
7.6974342e-005  2.165167e-007            
7.7174275e-005  2.1629691e-007            
7.7374209e-005  2.1602859e-007            
7.7574142e-005  2.160321e-007            
7.7774075e-005  2.1590627e-007            
7.7974009e-005  2.1561022e-007            
7.8173942e-005  2.152873e-007            
7.8373875e-005  2.1500068e-007            
7.8573809e-005  2.1500603e-007            
7.8773742e-005  2.1499184e-007            
7.8973675e-005  2.1490992e-007            
7.9173609e-005  2.1460141e-007            
7.9373542e-005  2.1420865e-007            
7.9573475e-005  2.1405189e-007            
7.9773409e-005  2.1393557e-007            
7.9973342e-005  2.1365784e-007            
8.0173276e-005  2.133213e-007            
8.0373209e-005  2.1295967e-007            
8.0573142e-005  2.1265268e-007            
8.0773076e-005  2.1243122e-007            
8.0973009e-005  2.1213925e-007            
8.1172942e-005  2.118497e-007            
8.1372876e-005  2.117012e-007            
8.1572809e-005  2.1146497e-007            
8.1772742e-005  2.1132065e-007            
8.1972676e-005  2.1105642e-007            
8.2172609e-005  2.1082114e-007            
8.2372542e-005  2.1077092e-007            
8.2572476e-005  2.1068192e-007            
8.2772409e-005  2.104305e-007            
8.2972343e-005  2.1015149e-007            
8.3172276e-005  2.0982735e-007            
8.3372209e-005  2.0989913e-007            
8.3572143e-005  2.0976952e-007            
8.3772076e-005  2.0937634e-007            
8.3972009e-005  2.0905047e-007            
8.4171943e-005  2.0879481e-007            
8.4371876e-005  2.0863769e-007            
8.4571809e-005  2.0840819e-007            
8.4771743e-005  2.0812215e-007            
8.4971676e-005  2.0794279e-007            
8.5171609e-005  2.0769028e-007            
8.5371543e-005  2.0745275e-007            
8.5571476e-005  2.0717016e-007            
8.5771409e-005  2.0690307e-007            
8.5971343e-005  2.0680552e-007            
8.6171276e-005  2.0660155e-007            
8.637121e-005  2.0618769e-007            
8.6571143e-005  2.0590627e-007            
8.6771076e-005  2.0561318e-007            
8.697101e-005  2.0552053e-007            
8.7170943e-005  2.0511687e-007            
8.7370876e-005  2.0482589e-007            
8.757081e-005  2.044606e-007            
8.7770743e-005  2.0400909e-007            
8.7970676e-005  2.0376751e-007            
8.817061e-005  2.0343212e-007            
8.8370543e-005  2.0315024e-007            
8.8570476e-005  2.0267629e-007            
8.877041e-005  2.022508e-007            
8.8970343e-005  2.015684e-007            
8.9170277e-005  2.0099456e-007            
8.937021e-005  2.0042192e-007            
8.9570143e-005  1.9997722e-007            
8.9770077e-005  1.9959928e-007            
8.997001e-005  1.9874591e-007            
9.0169943e-005  1.9824346e-007            
9.0369877e-005  1.9770334e-007            
9.056981e-005  1.9699736e-007            
9.0769743e-005  1.9608258e-007            
9.0969677e-005  1.952547e-007            
9.116961e-005  1.9441545e-007            
9.1369543e-005  1.9381567e-007            
9.1569477e-005  1.9295076e-007            
9.176941e-005  1.9201224e-007            
9.1969344e-005  1.9113598e-007            
9.2169277e-005  1.9045927e-007            
