Surface Profile             
x       y           
[m]     [m]         
0  -1.2493626e-009            
1.9993336e-007  -1.3047834e-009            
3.9986671e-007  -1.4801829e-009            
5.9980007e-007  -1.7319407e-009            
7.9973342e-007  -1.9122781e-009            
9.9966678e-007  -2.2066982e-009            
1.1996001e-006  -2.6859812e-009            
1.3995335e-006  -2.8500517e-009            
1.5994668e-006  -3.0677136e-009            
1.7994002e-006  -3.2818541e-009            
1.9993336e-006  -3.4373959e-009            
2.1992669e-006  -3.9801946e-009            
2.3992003e-006  -4.6471058e-009            
2.5991336e-006  -5.1813822e-009            
2.799067e-006  -5.6645677e-009            
2.9990003e-006  -5.9955974e-009            
3.1989337e-006  -6.5189576e-009            
3.398867e-006  -7.2832414e-009            
3.5988004e-006  -8.1177807e-009            
3.7987338e-006  -8.916151e-009            
3.9986671e-006  -9.5479327e-009            
4.1986005e-006  -9.9888707e-009            
4.3985338e-006  -1.0531465e-008            
4.5984672e-006  -1.145727e-008            
4.7984005e-006  -1.2181725e-008            
4.9983339e-006  -1.2829611e-008            
5.1982672e-006  -1.3187684e-008            
5.3982006e-006  -1.3471576e-008            
5.598134e-006  -1.4020866e-008            
5.7980673e-006  -1.4689151e-008            
5.9980007e-006  -1.540071e-008            
6.197934e-006  -1.622262e-008            
6.3978674e-006  -1.6821953e-008            
6.5978007e-006  -1.7187005e-008            
6.7977341e-006  -1.7740018e-008            
6.9976674e-006  -1.8508744e-008            
7.1976008e-006  -1.9402547e-008            
7.3975342e-006  -2.0131493e-008            
7.5974675e-006  -2.0613733e-008            
7.7974009e-006  -2.0976027e-008            
7.9973342e-006  -2.1638636e-008            
8.1972676e-006  -2.2386764e-008            
8.3972009e-006  -2.302527e-008            
8.5971343e-006  -2.3690238e-008            
8.7970676e-006  -2.430259e-008            
8.997001e-006  -2.492639e-008            
9.1969344e-006  -2.5590302e-008            
9.3968677e-006  -2.6139545e-008            
9.5968011e-006  -2.7047794e-008            
9.7967344e-006  -2.7897883e-008            
9.9966678e-006  -2.8676605e-008            
1.0196601e-005  -2.9325424e-008            
1.0396534e-005  -3.0006188e-008            
1.0596468e-005  -3.081814e-008            
1.0796401e-005  -3.1816576e-008            
1.0996335e-005  -3.253841e-008            
1.1196268e-005  -3.3253828e-008            
1.1396201e-005  -3.3977806e-008            
1.1596135e-005  -3.4797144e-008            
1.1796068e-005  -3.5736275e-008            
1.1996001e-005  -3.6385337e-008            
1.2195935e-005  -3.7265258e-008            
1.2395868e-005  -3.8112157e-008            
1.2595801e-005  -3.8780347e-008            
1.2795735e-005  -3.9575701e-008            
1.2995668e-005  -4.0540153e-008            
1.3195601e-005  -4.1329193e-008            
1.3395535e-005  -4.2270518e-008            
1.3595468e-005  -4.3165321e-008            
1.3795402e-005  -4.3828182e-008            
1.3995335e-005  -4.4691332e-008            
1.4195268e-005  -4.568353e-008            
1.4395202e-005  -4.669947e-008            
1.4595135e-005  -4.7646137e-008            
1.4795068e-005  -4.8736088e-008            
1.4995002e-005  -4.9729692e-008            
1.5194935e-005  -5.0644712e-008            
1.5394868e-005  -5.1750728e-008            
1.5594802e-005  -5.2903615e-008            
1.5794735e-005  -5.409821e-008            
1.5994668e-005  -5.5255236e-008            
1.6194602e-005  -5.633539e-008            
1.6394535e-005  -5.7304372e-008            
1.6594469e-005  -5.8358094e-008            
1.6794402e-005  -5.9494056e-008            
1.6994335e-005  -6.0883723e-008            
1.7194269e-005  -6.1915819e-008            
1.7394202e-005  -6.2940762e-008            
1.7594135e-005  -6.3947107e-008            
1.7794069e-005  -6.4884614e-008            
1.7994002e-005  -6.5838068e-008            
1.8193935e-005  -6.6907551e-008            
1.8393869e-005  -6.7917063e-008            
1.8593802e-005  -6.897903e-008            
1.8793735e-005  -6.9874529e-008            
1.8993669e-005  -7.0911704e-008            
1.9193602e-005  -7.1940755e-008            
1.9393535e-005  -7.3199598e-008            
1.9593469e-005  -7.4397855e-008            
1.9793402e-005  -7.5253457e-008            
1.9993336e-005  -7.6378035e-008            
2.0193269e-005  -7.7467835e-008            
2.0393202e-005  -7.8849873e-008            
2.0593136e-005  -8.0258664e-008            
2.0793069e-005  -8.1500058e-008            
2.0993002e-005  -8.2442156e-008            
2.1192936e-005  -8.3599653e-008            
2.1392869e-005  -8.4621957e-008            
2.1592802e-005  -8.5897692e-008            
2.1792736e-005  -8.7242162e-008            
2.1992669e-005  -8.8351712e-008            
2.2192602e-005  -8.9572151e-008            
2.2392536e-005  -9.0502268e-008            
2.2592469e-005  -9.153854e-008            
2.2792403e-005  -9.3042852e-008            
2.2992336e-005  -9.4357478e-008            
2.3192269e-005  -9.5425749e-008            
2.3392203e-005  -9.6441501e-008            
2.3592136e-005  -9.7546263e-008            
2.3792069e-005  -9.8691605e-008            
2.3992003e-005  -9.9892571e-008            
2.4191936e-005  -1.0107688e-007            
2.4391869e-005  -1.0243041e-007            
2.4591803e-005  -1.0350652e-007            
2.4791736e-005  -1.0462202e-007            
2.4991669e-005  -1.0548077e-007            
2.5191603e-005  -1.0656755e-007            
2.5391536e-005  -1.0775921e-007            
2.5591469e-005  -1.0888332e-007            
2.5791403e-005  -1.0975896e-007            
2.5991336e-005  -1.104845e-007            
2.619127e-005  -1.1135671e-007            
2.6391203e-005  -1.1244475e-007            
2.6591136e-005  -1.132556e-007            
2.679107e-005  -1.1395551e-007            
2.6991003e-005  -1.1460859e-007            
2.7190936e-005  -1.1520452e-007            
2.739087e-005  -1.1604882e-007            
2.7590803e-005  -1.1698708e-007            
2.7790736e-005  -1.1767131e-007            
2.799067e-005  -1.1838838e-007            
2.8190603e-005  -1.1890228e-007            
2.8390536e-005  -1.1946394e-007            
2.859047e-005  -1.2009165e-007            
2.8790403e-005  -1.2069597e-007            
2.8990337e-005  -1.2146645e-007            
2.919027e-005  -1.2205422e-007            
2.9390203e-005  -1.2235677e-007            
2.9590137e-005  -1.2269381e-007            
2.979007e-005  -1.2333128e-007            
2.9990003e-005  -1.2406968e-007            
3.0189937e-005  -1.2479795e-007            
3.038987e-005  -1.2516355e-007            
3.0589803e-005  -1.2557057e-007            
3.0789737e-005  -1.2602034e-007            
3.098967e-005  -1.2667422e-007            
3.1189603e-005  -1.2723226e-007            
3.1389537e-005  -1.2759679e-007            
3.158947e-005  -1.2821895e-007            
3.1789404e-005  -1.2864634e-007            
3.1989337e-005  -1.2926483e-007            
3.218927e-005  -1.2979851e-007            
3.2389204e-005  -1.3050618e-007            
3.2589137e-005  -1.3127337e-007            
3.278907e-005  -1.3181195e-007            
3.2989004e-005  -1.321803e-007            
3.3188937e-005  -1.3261889e-007            
3.338887e-005  -1.3322744e-007            
3.3588804e-005  -1.3402826e-007            
3.3788737e-005  -1.3472587e-007            
3.398867e-005  -1.3516662e-007            
3.4188604e-005  -1.3576745e-007            
3.4388537e-005  -1.3652635e-007            
3.458847e-005  -1.3715743e-007            
3.4788404e-005  -1.3794782e-007            
3.4988337e-005  -1.3856389e-007            
3.5188271e-005  -1.394991e-007            
3.5388204e-005  -1.4048515e-007            
3.5588137e-005  -1.4128499e-007            
3.5788071e-005  -1.420985e-007            
3.5988004e-005  -1.4318924e-007            
3.6187937e-005  -1.4430926e-007            
3.6387871e-005  -1.4540654e-007            
3.6587804e-005  -1.4631766e-007            
3.6787737e-005  -1.4728147e-007            
3.6987671e-005  -1.4838788e-007            
3.7187604e-005  -1.4934635e-007            
3.7387537e-005  -1.5055955e-007            
3.7587471e-005  -1.518484e-007            
3.7787404e-005  -1.5270218e-007            
3.7987338e-005  -1.5375957e-007            
3.8187271e-005  -1.5479242e-007            
3.8387204e-005  -1.559352e-007            
3.8587138e-005  -1.5711894e-007            
3.8787071e-005  -1.5830777e-007            
3.8987004e-005  -1.5931148e-007            
3.9186938e-005  -1.6032877e-007            
3.9386871e-005  -1.6135714e-007            
3.9586804e-005  -1.6248306e-007            
3.9786738e-005  -1.6374844e-007            
3.9986671e-005  -1.6489093e-007            
4.0186604e-005  -1.6591417e-007            
4.0386538e-005  -1.6689256e-007            
4.0586471e-005  -1.677764e-007            
4.0786405e-005  -1.687925e-007            
4.0986338e-005  -1.6998692e-007            
4.1186271e-005  -1.7103707e-007            
4.1386205e-005  -1.7197496e-007            
4.1586138e-005  -1.727314e-007            
4.1786071e-005  -1.7349992e-007            
4.1986005e-005  -1.7435165e-007            
4.2185938e-005  -1.7544484e-007            
4.2385871e-005  -1.7642019e-007            
4.2585805e-005  -1.7710752e-007            
4.2785738e-005  -1.7770505e-007            
4.2985671e-005  -1.7836084e-007            
4.3185605e-005  -1.7935956e-007            
4.3385538e-005  -1.8021365e-007            
4.3585471e-005  -1.8114331e-007            
4.3785405e-005  -1.8203053e-007            
4.3985338e-005  -1.8264059e-007            
4.4185272e-005  -1.8332401e-007            
4.4385205e-005  -1.841957e-007            
4.4585138e-005  -1.8504031e-007            
4.4785072e-005  -1.8592838e-007            
4.4985005e-005  -1.8657016e-007            
4.5184938e-005  -1.8722746e-007            
4.5384872e-005  -1.8812789e-007            
4.5584805e-005  -1.891883e-007            
4.5784738e-005  -1.904677e-007            
4.5984672e-005  -1.9147278e-007            
4.6184605e-005  -1.9223897e-007            
4.6384538e-005  -1.9315095e-007            
4.6584472e-005  -1.9404146e-007            
4.6784405e-005  -1.950806e-007            
4.6984339e-005  -1.9620454e-007            
4.7184272e-005  -1.9734884e-007            
4.7384205e-005  -1.9836251e-007            
4.7584139e-005  -1.9927861e-007            
4.7784072e-005  -2.002423e-007            
4.7984005e-005  -2.0130333e-007            
4.8183939e-005  -2.0257918e-007            
4.8383872e-005  -2.0371359e-007            
4.8583805e-005  -2.0462603e-007            
4.8783739e-005  -2.0558723e-007            
4.8983672e-005  -2.0666105e-007            
4.9183605e-005  -2.0802928e-007            
4.9383539e-005  -2.0940503e-007            
4.9583472e-005  -2.1076605e-007            
4.9783406e-005  -2.1185625e-007            
4.9983339e-005  -2.1317609e-007            
5.0183272e-005  -2.1439795e-007            
5.0383206e-005  -2.1575814e-007            
5.0583139e-005  -2.1710007e-007            
5.0783072e-005  -2.1835856e-007            
5.0983006e-005  -2.196531e-007            
5.1182939e-005  -2.2075266e-007            
5.1382872e-005  -2.2170923e-007            
5.1582806e-005  -2.2295235e-007            
5.1782739e-005  -2.2414179e-007            
5.1982672e-005  -2.253423e-007            
5.2182606e-005  -2.2640713e-007            
5.2382539e-005  -2.2709876e-007            
5.2582472e-005  -2.2793465e-007            
5.2782406e-005  -2.2895713e-007            
5.2982339e-005  -2.2994184e-007            
5.3182273e-005  -2.3088514e-007            
5.3382206e-005  -2.3170448e-007            
5.3582139e-005  -2.3255516e-007            
5.3782073e-005  -2.3351948e-007            
5.3982006e-005  -2.3438251e-007            
5.4181939e-005  -2.3541226e-007            
5.4381873e-005  -2.3634558e-007            
5.4581806e-005  -2.3733933e-007            
5.4781739e-005  -2.3832534e-007            
5.4981673e-005  -2.3940619e-007            
5.5181606e-005  -2.4050128e-007            
5.5381539e-005  -2.4182771e-007            
5.5581473e-005  -2.4323305e-007            
5.5781406e-005  -2.4436631e-007            
5.598134e-005  -2.4536275e-007            
5.6181273e-005  -2.4662133e-007            
5.6381206e-005  -2.4801854e-007            
5.658114e-005  -2.4920794e-007            
5.6781073e-005  -2.5035374e-007            
5.6981006e-005  -2.5151241e-007            
5.718094e-005  -2.5264195e-007            
5.7380873e-005  -2.5384266e-007            
5.7580806e-005  -2.548098e-007            
5.778074e-005  -2.5586625e-007            
5.7980673e-005  -2.5713582e-007            
5.8180606e-005  -2.5830765e-007            
5.838054e-005  -2.5933293e-007            
5.8580473e-005  -2.6029324e-007            
5.8780407e-005  -2.6139154e-007            
5.898034e-005  -2.6272002e-007            
5.9180273e-005  -2.638999e-007            
5.9380207e-005  -2.6499476e-007            
5.958014e-005  -2.6611961e-007            
5.9780073e-005  -2.6703937e-007            
5.9980007e-005  -2.6816951e-007            
6.017994e-005  -2.692754e-007            
6.0379873e-005  -2.7033101e-007            
6.0579807e-005  -2.7146391e-007            
6.077974e-005  -2.724688e-007            
6.0979673e-005  -2.734726e-007            
6.1179607e-005  -2.7440809e-007            
6.137954e-005  -2.7535089e-007            
6.1579473e-005  -2.7648163e-007            
6.1779407e-005  -2.7761157e-007            
6.197934e-005  -2.7864064e-007            
6.2179274e-005  -2.7957185e-007            
6.2379207e-005  -2.8042635e-007            
6.257914e-005  -2.8154796e-007            
6.2779074e-005  -2.8267366e-007            
6.2979007e-005  -2.8368705e-007            
6.317894e-005  -2.8473986e-007            
6.3378874e-005  -2.8562811e-007            
6.3578807e-005  -2.8667716e-007            
6.377874e-005  -2.8793707e-007            
6.3978674e-005  -2.8920008e-007            
6.4178607e-005  -2.9047752e-007            
6.437854e-005  -2.9169989e-007            
6.4578474e-005  -2.9281955e-007            
6.4778407e-005  -2.9387664e-007            
6.4978341e-005  -2.9521433e-007            
6.5178274e-005  -2.9648571e-007            
6.5378207e-005  -2.9788458e-007            
6.5578141e-005  -2.9906933e-007            
6.5778074e-005  -3.0024147e-007            
6.5978007e-005  -3.0139337e-007            
6.6177941e-005  -3.0268043e-007            
6.6377874e-005  -3.0396221e-007            
6.6577807e-005  -3.0522079e-007            
6.6777741e-005  -3.0645939e-007            
6.6977674e-005  -3.0750051e-007            
6.7177607e-005  -3.0856605e-007            
6.7377541e-005  -3.0978746e-007            
6.7577474e-005  -3.1110776e-007            
6.7777407e-005  -3.1233497e-007            
6.7977341e-005  -3.1338276e-007            
6.8177274e-005  -3.1432513e-007            
6.8377208e-005  -3.1533966e-007            
6.8577141e-005  -3.1653722e-007            
6.8777074e-005  -3.1765401e-007            
6.8977008e-005  -3.1884095e-007            
6.9176941e-005  -3.1964379e-007            
6.9376874e-005  -3.2054265e-007            
6.9576808e-005  -3.2152225e-007            
6.9776741e-005  -3.2257715e-007            
6.9976674e-005  -3.2369168e-007            
7.0176608e-005  -3.2461751e-007            
7.0376541e-005  -3.2547824e-007            
7.0576474e-005  -3.2622663e-007            
7.0776408e-005  -3.270232e-007            
7.0976341e-005  -3.2771867e-007            
7.1176275e-005  -3.2855572e-007            
7.1376208e-005  -3.293431e-007            
7.1576141e-005  -3.3006229e-007            
7.1776075e-005  -3.3059621e-007            
7.1976008e-005  -3.3110752e-007            
7.2175941e-005  -3.3186124e-007            
7.2375875e-005  -3.3256079e-007            
7.2575808e-005  -3.3319818e-007            
7.2775741e-005  -3.3366843e-007            
7.2975675e-005  -3.3431086e-007            
7.3175608e-005  -3.3482519e-007            
7.3375541e-005  -3.3547119e-007            
7.3575475e-005  -3.3618069e-007            
7.3775408e-005  -3.3680465e-007            
7.3975342e-005  -3.3763727e-007            
7.4175275e-005  -3.3833502e-007            
7.4375208e-005  -3.3894694e-007            
7.4575142e-005  -3.3960055e-007            
7.4775075e-005  -3.4052781e-007            
7.4975008e-005  -3.412113e-007            
7.5174942e-005  -3.4178794e-007            
7.5374875e-005  -3.4218787e-007            
7.5574808e-005  -3.4271494e-007            
7.5774742e-005  -3.4337655e-007            
7.5974675e-005  -3.4391369e-007            
7.6174608e-005  -3.4427068e-007            
7.6374542e-005  -3.4467437e-007            
7.6574475e-005  -3.4503626e-007            
7.6774408e-005  -3.4548764e-007            
7.6974342e-005  -3.4568286e-007            
7.7174275e-005  -3.459424e-007            
7.7374209e-005  -3.4631664e-007            
7.7574142e-005  -3.4660431e-007            
7.7774075e-005  -3.468285e-007            
7.7974009e-005  -3.4710769e-007            
7.8173942e-005  -3.4726697e-007            
7.8373875e-005  -3.4747283e-007            
7.8573809e-005  -3.4769501e-007            
7.8773742e-005  -3.4774723e-007            
7.8973675e-005  -3.4785023e-007            
7.9173609e-005  -3.4786888e-007            
7.9373542e-005  -3.4805021e-007            
7.9573475e-005  -3.4826703e-007            
7.9773409e-005  -3.4822604e-007            
7.9973342e-005  -3.4823115e-007            
8.0173276e-005  -3.4841759e-007            
8.0373209e-005  -3.4843617e-007            
8.0573142e-005  -3.4835312e-007            
8.0773076e-005  -3.4818494e-007            
8.0973009e-005  -3.4812759e-007            
8.1172942e-005  -3.481266e-007            
8.1372876e-005  -3.4804795e-007            
8.1572809e-005  -3.478154e-007            
8.1772742e-005  -3.4755197e-007            
8.1972676e-005  -3.4757299e-007            
8.2172609e-005  -3.4744927e-007            
8.2372542e-005  -3.4728123e-007            
8.2572476e-005  -3.4711694e-007            
8.2772409e-005  -3.4694542e-007            
8.2972343e-005  -3.4685671e-007            
8.3172276e-005  -3.4652329e-007            
8.3372209e-005  -3.4620324e-007            
8.3572143e-005  -3.4617002e-007            
8.3772076e-005  -3.460021e-007            
8.3972009e-005  -3.457594e-007            
8.4171943e-005  -3.4538086e-007            
8.4371876e-005  -3.4503582e-007            
8.4571809e-005  -3.4486015e-007            
8.4771743e-005  -3.4491202e-007            
8.4971676e-005  -3.4473572e-007            
8.5171609e-005  -3.4443076e-007            
8.5371543e-005  -3.4406217e-007            
8.5571476e-005  -3.4381621e-007            
8.5771409e-005  -3.4361823e-007            
8.5971343e-005  -3.4333461e-007            
8.6171276e-005  -3.429825e-007            
8.637121e-005  -3.4270794e-007            
8.6571143e-005  -3.4244726e-007            
8.6771076e-005  -3.4221192e-007            
8.697101e-005  -3.4178657e-007            
8.7170943e-005  -3.4156352e-007            
8.7370876e-005  -3.4157869e-007            
8.757081e-005  -3.4128419e-007            
8.7770743e-005  -3.4061994e-007            
8.7970676e-005  -3.4020258e-007            
8.817061e-005  -3.399692e-007            
8.8370543e-005  -3.3998892e-007            
8.8570476e-005  -3.3960139e-007            
8.877041e-005  -3.3929974e-007            
8.8970343e-005  -3.3888969e-007            
8.9170277e-005  -3.3872024e-007            
8.937021e-005  -3.3828075e-007            
8.9570143e-005  -3.3762614e-007            
8.9770077e-005  -3.3725722e-007            
8.997001e-005  -3.3697342e-007            
9.0169943e-005  -3.3647181e-007            
9.0369877e-005  -3.3594312e-007            
9.056981e-005  -3.3520497e-007            
9.0769743e-005  -3.3470627e-007            
