Surface Profile             
x       y           
[m]     [m]         
0  2.8551966e-009            
1.9993336e-007  4.251251e-009            
3.9986671e-007  5.2801144e-009            
5.9980007e-007  6.1673091e-009            
7.9973342e-007  6.8871777e-009            
9.9966678e-007  7.3557773e-009            
1.1996001e-006  7.8760167e-009            
1.3995335e-006  8.763599e-009            
1.5994668e-006  9.6559176e-009            
1.7994002e-006  1.0256958e-008            
1.9993336e-006  1.0872109e-008            
2.1992669e-006  1.1610715e-008            
2.3992003e-006  1.2328006e-008            
2.5991336e-006  1.3275432e-008            
2.799067e-006  1.4314858e-008            
2.9990003e-006  1.5102339e-008            
3.1989337e-006  1.5952725e-008            
3.398867e-006  1.6721608e-008            
3.5988004e-006  1.768851e-008            
3.7987338e-006  1.8790431e-008            
3.9986671e-006  1.9981073e-008            
4.1986005e-006  2.0769322e-008            
4.3985338e-006  2.1640798e-008            
4.5984672e-006  2.2468194e-008            
4.7984005e-006  2.3504802e-008            
4.9983339e-006  2.4820355e-008            
5.1982672e-006  2.5928828e-008            
5.3982006e-006  2.6827179e-008            
5.598134e-006  2.7560396e-008            
5.7980673e-006  2.8555095e-008            
5.9980007e-006  2.9613604e-008            
6.197934e-006  3.0903154e-008            
6.3978674e-006  3.1850234e-008            
6.5978007e-006  3.277405e-008            
6.7977341e-006  3.3601734e-008            
6.9976674e-006  3.4243925e-008            
7.1976008e-006  3.5208769e-008            
7.3975342e-006  3.6239397e-008            
7.5974675e-006  3.7248391e-008            
7.7974009e-006  3.8133455e-008            
7.9973342e-006  3.8784711e-008            
8.1972676e-006  3.9538801e-008            
8.3972009e-006  4.0530591e-008            
8.5971343e-006  4.1424294e-008            
8.7970676e-006  4.2384225e-008            
8.997001e-006  4.3080682e-008            
9.1969344e-006  4.3690153e-008            
9.3968677e-006  4.4377218e-008            
9.5968011e-006  4.4914366e-008            
9.7967344e-006  4.5546082e-008            
9.9966678e-006  4.6380987e-008            
1.0196601e-005  4.7121089e-008            
1.0396534e-005  4.7495168e-008            
1.0596468e-005  4.779919e-008            
1.0796401e-005  4.8402135e-008            
1.0996335e-005  4.9183899e-008            
1.1196268e-005  4.983899e-008            
1.1396201e-005  5.004191e-008            
1.1596135e-005  5.0182231e-008            
1.1796068e-005  5.06788e-008            
1.1996001e-005  5.1296231e-008            
1.2195935e-005  5.18598e-008            
1.2395868e-005  5.2171399e-008            
1.2595801e-005  5.242109e-008            
1.2795735e-005  5.2804138e-008            
1.2995668e-005  5.2979683e-008            
1.3195601e-005  5.282382e-008            
1.3395535e-005  5.2879568e-008            
1.3595468e-005  5.3240752e-008            
1.3795402e-005  5.3361973e-008            
1.3995335e-005  5.3358643e-008            
1.4195268e-005  5.3105845e-008            
1.4395202e-005  5.3247213e-008            
1.4595135e-005  5.3438084e-008            
1.4795068e-005  5.3497176e-008            
1.4995002e-005  5.323057e-008            
1.5194935e-005  5.2976245e-008            
1.5394868e-005  5.2678342e-008            
1.5594802e-005  5.2585564e-008            
1.5794735e-005  5.2519187e-008            
1.5994668e-005  5.2366221e-008            
1.6194602e-005  5.2276317e-008            
1.6394535e-005  5.2171249e-008            
1.6594469e-005  5.1929682e-008            
1.6794402e-005  5.1616425e-008            
1.6994335e-005  5.1610333e-008            
1.7194269e-005  5.1670076e-008            
1.7394202e-005  5.1724724e-008            
1.7594135e-005  5.157636e-008            
1.7794069e-005  5.1303779e-008            
1.7994002e-005  5.120346e-008            
1.8193935e-005  5.1130223e-008            
1.8393869e-005  5.1139839e-008            
1.8593802e-005  5.0868675e-008            
1.8793735e-005  5.0703771e-008            
1.8993669e-005  5.0553629e-008            
1.9193602e-005  5.0300839e-008            
1.9393535e-005  5.0001002e-008            
1.9593469e-005  4.9919132e-008            
1.9793402e-005  5.0076175e-008            
1.9993336e-005  4.9947843e-008            
2.0193269e-005  4.9720095e-008            
2.0393202e-005  4.9417349e-008            
2.0593136e-005  4.9213318e-008            
2.0793069e-005  4.940575e-008            
2.0993002e-005  4.9528011e-008            
2.1192936e-005  4.9352152e-008            
2.1392869e-005  4.9117048e-008            
2.1592802e-005  4.8819548e-008            
2.1792736e-005  4.87258e-008            
2.1992669e-005  4.8889985e-008            
2.2192602e-005  4.8708804e-008            
2.2392536e-005  4.8733907e-008            
2.2592469e-005  4.8490733e-008            
2.2792403e-005  4.8244598e-008            
2.2992336e-005  4.8194237e-008            
2.3192269e-005  4.8176714e-008            
2.3392203e-005  4.8083362e-008            
2.3592136e-005  4.7945164e-008            
2.3792069e-005  4.744364e-008            
2.3992003e-005  4.7040907e-008            
2.4191936e-005  4.662283e-008            
2.4391869e-005  4.6413276e-008            
2.4591803e-005  4.6165556e-008            
2.4791736e-005  4.5872388e-008            
2.4991669e-005  4.5478562e-008            
2.5191603e-005  4.4984075e-008            
2.5391536e-005  4.4446859e-008            
2.5591469e-005  4.4439016e-008            
2.5791403e-005  4.4085407e-008            
2.5991336e-005  4.3769238e-008            
2.619127e-005  4.3234848e-008            
2.6391203e-005  4.2824662e-008            
2.6591136e-005  4.257717e-008            
2.679107e-005  4.22954e-008            
2.6991003e-005  4.1831806e-008            
2.7190936e-005  4.1307099e-008            
2.739087e-005  4.0824386e-008            
2.7590803e-005  4.0266301e-008            
2.7790736e-005  3.9796651e-008            
2.799067e-005  3.9358059e-008            
2.8190603e-005  3.8896032e-008            
2.8390536e-005  3.8445722e-008            
2.859047e-005  3.7606581e-008            
2.8790403e-005  3.6986291e-008            
2.8990337e-005  3.6512391e-008            
2.919027e-005  3.6195972e-008            
2.9390203e-005  3.5762356e-008            
2.9590137e-005  3.4786808e-008            
2.979007e-005  3.402785e-008            
2.9990003e-005  3.343281e-008            
3.0189937e-005  3.304096e-008            
3.038987e-005  3.2630356e-008            
3.0589803e-005  3.1912071e-008            
3.0789737e-005  3.1159777e-008            
3.098967e-005  3.0383678e-008            
3.1189603e-005  2.9464082e-008            
3.1389537e-005  2.8770821e-008            
3.158947e-005  2.8130376e-008            
3.1789404e-005  2.7434177e-008            
3.1989337e-005  2.6530423e-008            
3.218927e-005  2.5435998e-008            
3.2389204e-005  2.4609132e-008            
3.2589137e-005  2.3874467e-008            
3.278907e-005  2.3267935e-008            
3.2989004e-005  2.2449253e-008            
3.3188937e-005  2.1324063e-008            
3.338887e-005  2.0250567e-008            
3.3588804e-005  1.944222e-008            
3.3788737e-005  1.8514871e-008            
3.398867e-005  1.7483598e-008            
3.4188604e-005  1.6321686e-008            
3.4388537e-005  1.524519e-008            
3.458847e-005  1.4091849e-008            
3.4788404e-005  1.293693e-008            
3.4988337e-005  1.1827081e-008            
3.5188271e-005  1.0977958e-008            
3.5388204e-005  9.8858804e-009            
3.5588137e-005  8.7029578e-009            
3.5788071e-005  7.3043989e-009            
3.5988004e-005  6.0720603e-009            
3.6187937e-005  4.9929737e-009            
3.6387871e-005  3.9993322e-009            
3.6587804e-005  2.7258019e-009            
3.6787737e-005  1.5035769e-009            
3.6987671e-005  1.5048172e-010            
3.7187604e-005  -9.7284812e-010            
3.7387537e-005  -2.2461396e-009            
3.7587471e-005  -3.4570326e-009            
3.7787404e-005  -4.9250481e-009            
3.7987338e-005  -6.4842089e-009            
3.8187271e-005  -7.9909891e-009            
3.8387204e-005  -9.5602422e-009            
3.8587138e-005  -1.1249179e-008            
3.8787071e-005  -1.2785829e-008            
3.8987004e-005  -1.4269716e-008            
3.9186938e-005  -1.5751439e-008            
3.9386871e-005  -1.7469042e-008            
3.9586804e-005  -1.9222348e-008            
3.9786738e-005  -2.0735647e-008            
3.9986671e-005  -2.2141161e-008            
4.0186604e-005  -2.3761468e-008            
4.0386538e-005  -2.5446002e-008            
4.0586471e-005  -2.715075e-008            
4.0786405e-005  -2.8715831e-008            
4.0986338e-005  -3.0308568e-008            
4.1186271e-005  -3.1853951e-008            
4.1386205e-005  -3.3430823e-008            
4.1586138e-005  -3.5072068e-008            
4.1786071e-005  -3.6738032e-008            
4.1986005e-005  -3.8650575e-008            
4.2185938e-005  -4.042046e-008            
4.2385871e-005  -4.2145411e-008            
4.2585805e-005  -4.3865385e-008            
4.2785738e-005  -4.5655512e-008            
4.2985671e-005  -4.7773456e-008            
4.3185605e-005  -5.0011591e-008            
4.3385538e-005  -5.2049715e-008            
4.3585471e-005  -5.3860072e-008            
4.3785405e-005  -5.5739236e-008            
4.3985338e-005  -5.7837891e-008            
4.4185272e-005  -6.0107435e-008            
4.4385205e-005  -6.2289892e-008            
4.4585138e-005  -6.4473475e-008            
4.4785072e-005  -6.6662844e-008            
4.4985005e-005  -6.8528826e-008            
4.5184938e-005  -7.0710666e-008            
4.5384872e-005  -7.289794e-008            
4.5584805e-005  -7.5315309e-008            
4.5784738e-005  -7.7583714e-008            
4.5984672e-005  -7.9535075e-008            
4.6184605e-005  -8.1382606e-008            
4.6384538e-005  -8.3403782e-008            
4.6584472e-005  -8.5484211e-008            
4.6784405e-005  -8.7749631e-008            
4.6984339e-005  -8.990186e-008            
4.7184272e-005  -9.1875541e-008            
4.7384205e-005  -9.389015e-008            
4.7584139e-005  -9.5648304e-008            
4.7784072e-005  -9.7745519e-008            
4.7984005e-005  -1.0011809e-007            
4.8183939e-005  -1.0222884e-007            
4.8383872e-005  -1.0417619e-007            
4.8583805e-005  -1.0590615e-007            
4.8783739e-005  -1.0787591e-007            
4.8983672e-005  -1.1010613e-007            
4.9183605e-005  -1.1234334e-007            
4.9383539e-005  -1.1431631e-007            
4.9583472e-005  -1.1619366e-007            
4.9783406e-005  -1.1802016e-007            
4.9983339e-005  -1.2011993e-007            
5.0183272e-005  -1.2224517e-007            
5.0383206e-005  -1.2424834e-007            
5.0583139e-005  -1.2626466e-007            
5.0783072e-005  -1.2809285e-007            
5.0983006e-005  -1.2987064e-007            
5.1182939e-005  -1.3152729e-007            
5.1382872e-005  -1.3346505e-007            
5.1582806e-005  -1.3556308e-007            
5.1782739e-005  -1.3756946e-007            
5.1982672e-005  -1.3942832e-007            
5.2182606e-005  -1.4124711e-007            
5.2382539e-005  -1.4317661e-007            
5.2582472e-005  -1.4539081e-007            
5.2782406e-005  -1.4766787e-007            
5.2982339e-005  -1.4981799e-007            
5.3182273e-005  -1.519748e-007            
5.3382206e-005  -1.5410828e-007            
5.3582139e-005  -1.5638121e-007            
5.3782073e-005  -1.5869147e-007            
5.3982006e-005  -1.6092654e-007            
5.4181939e-005  -1.6335918e-007            
5.4381873e-005  -1.6538275e-007            
5.4581806e-005  -1.6745084e-007            
5.4781739e-005  -1.6962788e-007            
5.4981673e-005  -1.7183107e-007            
5.5181606e-005  -1.7428359e-007            
5.5381539e-005  -1.7650197e-007            
5.5581473e-005  -1.7838445e-007            
5.5781406e-005  -1.8052892e-007            
5.598134e-005  -1.8285169e-007            
5.6181273e-005  -1.8500642e-007            
5.6381206e-005  -1.8707504e-007            
5.658114e-005  -1.8904138e-007            
5.6781073e-005  -1.913047e-007            
5.6981006e-005  -1.935487e-007            
5.718094e-005  -1.9579601e-007            
5.7380873e-005  -1.9792069e-007            
5.7580806e-005  -2.0008389e-007            
5.778074e-005  -2.0262769e-007            
5.7980673e-005  -2.0511495e-007            
5.8180606e-005  -2.0756164e-007            
5.838054e-005  -2.0985659e-007            
5.8580473e-005  -2.1222966e-007            
5.8780407e-005  -2.1481011e-007            
5.898034e-005  -2.173058e-007            
5.9180273e-005  -2.1968892e-007            
5.9380207e-005  -2.2210345e-007            
5.958014e-005  -2.2462023e-007            
5.9780073e-005  -2.2716399e-007            
5.9980007e-005  -2.2987461e-007            
6.017994e-005  -2.3241006e-007            
6.0379873e-005  -2.3486697e-007            
6.0579807e-005  -2.3751995e-007            
6.077974e-005  -2.3992919e-007            
6.0979673e-005  -2.4238005e-007            
6.1179607e-005  -2.4485073e-007            
6.137954e-005  -2.4774465e-007            
6.1579473e-005  -2.5045413e-007            
6.1779407e-005  -2.5322086e-007            
6.197934e-005  -2.5572069e-007            
6.2179274e-005  -2.5850431e-007            
6.2379207e-005  -2.613561e-007            
6.257914e-005  -2.6433762e-007            
6.2779074e-005  -2.6718215e-007            
6.2979007e-005  -2.6994453e-007            
6.317894e-005  -2.7276354e-007            
6.3378874e-005  -2.7572313e-007            
6.3578807e-005  -2.7886147e-007            
6.377874e-005  -2.819412e-007            
6.3978674e-005  -2.848973e-007            
6.4178607e-005  -2.8800702e-007            
6.437854e-005  -2.9080357e-007            
6.4578474e-005  -2.9378907e-007            
6.4778407e-005  -2.9691423e-007            
6.4978341e-005  -3.0016585e-007            
6.5178274e-005  -3.0316496e-007            
6.5378207e-005  -3.0600647e-007            
6.5578141e-005  -3.0880525e-007            
6.5778074e-005  -3.1189034e-007            
6.5978007e-005  -3.1495839e-007            
6.6177941e-005  -3.1804005e-007            
6.6377874e-005  -3.2105306e-007            
6.6577807e-005  -3.2405729e-007            
6.6777741e-005  -3.2683449e-007            
6.6977674e-005  -3.2965972e-007            
6.7177607e-005  -3.3256069e-007            
6.7377541e-005  -3.3559363e-007            
6.7577474e-005  -3.3868856e-007            
6.7777407e-005  -3.4170763e-007            
6.7977341e-005  -3.4461323e-007            
6.8177274e-005  -3.4756709e-007            
6.8377208e-005  -3.5082742e-007            
6.8577141e-005  -3.5428793e-007            
6.8777074e-005  -3.5759539e-007            
6.8977008e-005  -3.6052815e-007            
6.9176941e-005  -3.633167e-007            
6.9376874e-005  -3.6660428e-007            
6.9576808e-005  -3.6985861e-007            
6.9776741e-005  -3.7315464e-007            
6.9976674e-005  -3.7619442e-007            
7.0176608e-005  -3.7892593e-007            
7.0376541e-005  -3.8199968e-007            
7.0576474e-005  -3.851579e-007            
7.0776408e-005  -3.8843327e-007            
7.0976341e-005  -3.9160759e-007            
7.1176275e-005  -3.945488e-007            
7.1376208e-005  -3.9763446e-007            
7.1576141e-005  -4.0076046e-007            
7.1776075e-005  -4.0391559e-007            
7.1976008e-005  -4.0705501e-007            
7.2175941e-005  -4.1046718e-007            
7.2375875e-005  -4.1376865e-007            
7.2575808e-005  -4.170592e-007            
7.2775741e-005  -4.2005221e-007            
7.2975675e-005  -4.2323863e-007            
7.3175608e-005  -4.2677122e-007            
7.3375541e-005  -4.3022621e-007            
7.3575475e-005  -4.3357343e-007            
7.3775408e-005  -4.3681933e-007            
7.3975342e-005  -4.3997843e-007            
7.4175275e-005  -4.4335677e-007            
7.4375208e-005  -4.4666307e-007            
7.4575142e-005  -4.5002836e-007            
7.4775075e-005  -4.5326258e-007            
7.4975008e-005  -4.5635632e-007            
7.5174942e-005  -4.5943189e-007            
7.5374875e-005  -4.626807e-007            
7.5574808e-005  -4.6596673e-007            
7.5774742e-005  -4.6926393e-007            
7.5974675e-005  -4.7231195e-007            
7.6174608e-005  -4.7532336e-007            
7.6374542e-005  -4.783887e-007            
7.6574475e-005  -4.8164282e-007            
7.6774408e-005  -4.8507298e-007            
7.6974342e-005  -4.8834652e-007            
7.7174275e-005  -4.9171996e-007            
7.7374209e-005  -4.9508345e-007            
7.7574142e-005  -4.9841298e-007            
7.7774075e-005  -5.0180837e-007            
7.7974009e-005  -5.0513746e-007            
7.8173942e-005  -5.0855828e-007            
7.8373875e-005  -5.1200716e-007            
7.8573809e-005  -5.154429e-007            
7.8773742e-005  -5.1875018e-007            
7.8973675e-005  -5.2203857e-007            
7.9173609e-005  -5.252321e-007            
7.9373542e-005  -5.2853965e-007            
7.9573475e-005  -5.3175561e-007            
7.9773409e-005  -5.3494843e-007            
7.9973342e-005  -5.3802583e-007            
8.0173276e-005  -5.4112764e-007            
8.0373209e-005  -5.4412312e-007            
8.0573142e-005  -5.4708251e-007            
8.0773076e-005  -5.4991116e-007            
8.0973009e-005  -5.5266275e-007            
8.1172942e-005  -5.5550525e-007            
8.1372876e-005  -5.5823711e-007            
8.1572809e-005  -5.6117044e-007            
8.1772742e-005  -5.6404087e-007            
8.1972676e-005  -5.6716675e-007            
8.2172609e-005  -5.7023385e-007            
8.2372542e-005  -5.7331622e-007            
8.2572476e-005  -5.763198e-007            
8.2772409e-005  -5.7882702e-007            
8.2972343e-005  -5.817328e-007            
8.3172276e-005  -5.8491418e-007            
8.3372209e-005  -5.8798481e-007            
8.3572143e-005  -5.9102945e-007            
8.3772076e-005  -5.9363261e-007            
8.3972009e-005  -5.9638987e-007            
8.4171943e-005  -5.9962644e-007            
8.4371876e-005  -6.0268258e-007            
8.4571809e-005  -6.0568874e-007            
8.4771743e-005  -6.0828858e-007            
8.4971676e-005  -6.1093583e-007            
8.5171609e-005  -6.1376465e-007            
8.5371543e-005  -6.165475e-007            
8.5571476e-005  -6.1923721e-007            
8.5771409e-005  -6.2186116e-007            
8.5971343e-005  -6.245859e-007            
8.6171276e-005  -6.2729742e-007            
8.637121e-005  -6.2973267e-007            
8.6571143e-005  -6.3233187e-007            
8.6771076e-005  -6.3516287e-007            
8.697101e-005  -6.3809529e-007            
8.7170943e-005  -6.4078942e-007            
8.7370876e-005  -6.4314702e-007            
8.757081e-005  -6.4559871e-007            
8.7770743e-005  -6.4841298e-007            
8.7970676e-005  -6.5125643e-007            
8.817061e-005  -6.5391074e-007            
8.8370543e-005  -6.5673571e-007            
8.8570476e-005  -6.5924854e-007            
8.877041e-005  -6.6169042e-007            
8.8970343e-005  -6.6419017e-007            
8.9170277e-005  -6.6687657e-007            
8.937021e-005  -6.6974553e-007            
8.9570143e-005  -6.7222568e-007            
8.9770077e-005  -6.7455871e-007            
8.997001e-005  -6.7685088e-007            
9.0169943e-005  -6.7908712e-007            
9.0369877e-005  -6.8147982e-007            
9.056981e-005  -6.8391878e-007            
9.0769743e-005  -6.8601833e-007            
9.0969677e-005  -6.883164e-007            
9.116961e-005  -6.9058513e-007            
9.1369543e-005  -6.9304643e-007            
9.1569477e-005  -6.9550094e-007            
