Surface Profile             
x       y           
[m]     [m]         
0  -2.8964983e-010            
1.9993336e-007  -9.3755001e-010            
3.9986671e-007  -1.8402728e-009            
5.9980007e-007  -2.1630306e-009            
7.9973342e-007  -2.867494e-009            
9.9966678e-007  -3.5469301e-009            
1.1996001e-006  -3.8909712e-009            
1.3995335e-006  -4.5569663e-009            
1.5994668e-006  -5.5155848e-009            
1.7994002e-006  -6.4492887e-009            
1.9993336e-006  -7.6648356e-009            
2.1992669e-006  -8.6932223e-009            
2.3992003e-006  -9.8736041e-009            
2.5991336e-006  -1.0989044e-008            
2.799067e-006  -1.2153714e-008            
2.9990003e-006  -1.3387685e-008            
3.1989337e-006  -1.4604872e-008            
3.398867e-006  -1.5726012e-008            
3.5988004e-006  -1.669437e-008            
3.7987338e-006  -1.7714781e-008            
3.9986671e-006  -1.8777104e-008            
4.1986005e-006  -1.9907161e-008            
4.3985338e-006  -2.0811816e-008            
4.5984672e-006  -2.148982e-008            
4.7984005e-006  -2.2433479e-008            
4.9983339e-006  -2.3372637e-008            
5.1982672e-006  -2.4332044e-008            
5.3982006e-006  -2.5232907e-008            
5.598134e-006  -2.5800672e-008            
5.7980673e-006  -2.6497214e-008            
5.9980007e-006  -2.7415497e-008            
6.197934e-006  -2.8217311e-008            
6.3978674e-006  -2.8903797e-008            
6.5978007e-006  -2.9452694e-008            
6.7977341e-006  -2.9971184e-008            
6.9976674e-006  -3.0471709e-008            
7.1976008e-006  -3.1036351e-008            
7.3975342e-006  -3.1642152e-008            
7.5974675e-006  -3.2034806e-008            
7.7974009e-006  -3.2537716e-008            
7.9973342e-006  -3.2653955e-008            
8.1972676e-006  -3.3032013e-008            
8.3972009e-006  -3.324452e-008            
8.5971343e-006  -3.3536683e-008            
8.7970676e-006  -3.4099693e-008            
8.997001e-006  -3.4444104e-008            
9.1969344e-006  -3.4695469e-008            
9.3968677e-006  -3.4813976e-008            
9.5968011e-006  -3.4890865e-008            
9.7967344e-006  -3.5239628e-008            
9.9966678e-006  -3.5826392e-008            
1.0196601e-005  -3.6188512e-008            
1.0396534e-005  -3.6530541e-008            
1.0596468e-005  -3.6615654e-008            
1.0796401e-005  -3.6995087e-008            
1.0996335e-005  -3.736144e-008            
1.1196268e-005  -3.7755372e-008            
1.1396201e-005  -3.8128704e-008            
1.1596135e-005  -3.8505383e-008            
1.1796068e-005  -3.8862219e-008            
1.1996001e-005  -3.9299263e-008            
1.2195935e-005  -3.9835657e-008            
1.2395868e-005  -4.0401848e-008            
1.2595801e-005  -4.0950799e-008            
1.2795735e-005  -4.1626948e-008            
1.2995668e-005  -4.2057588e-008            
1.3195601e-005  -4.2526557e-008            
1.3395535e-005  -4.286678e-008            
1.3595468e-005  -4.353955e-008            
1.3795402e-005  -4.4166583e-008            
1.3995335e-005  -4.4815562e-008            
1.4195268e-005  -4.5202884e-008            
1.4395202e-005  -4.5577063e-008            
1.4595135e-005  -4.6032629e-008            
1.4795068e-005  -4.64902e-008            
1.4995002e-005  -4.7258435e-008            
1.5194935e-005  -4.7928274e-008            
1.5394868e-005  -4.8404955e-008            
1.5594802e-005  -4.873444e-008            
1.5794735e-005  -4.9069293e-008            
1.5994668e-005  -4.9623444e-008            
1.6194602e-005  -5.017199e-008            
1.6394535e-005  -5.0537285e-008            
1.6594469e-005  -5.0879785e-008            
1.6794402e-005  -5.1402678e-008            
1.6994335e-005  -5.1860431e-008            
1.7194269e-005  -5.2472317e-008            
1.7394202e-005  -5.2767493e-008            
1.7594135e-005  -5.3273362e-008            
1.7794069e-005  -5.388617e-008            
1.7994002e-005  -5.4336512e-008            
1.8193935e-005  -5.4493586e-008            
1.8393869e-005  -5.4819938e-008            
1.8593802e-005  -5.5387717e-008            
1.8793735e-005  -5.6121606e-008            
1.8993669e-005  -5.6705474e-008            
1.9193602e-005  -5.6999713e-008            
1.9393535e-005  -5.7084002e-008            
1.9593469e-005  -5.7506922e-008            
1.9793402e-005  -5.8255198e-008            
1.9993336e-005  -5.9010652e-008            
2.0193269e-005  -5.9674318e-008            
2.0393202e-005  -5.9913676e-008            
2.0593136e-005  -6.0089017e-008            
2.0793069e-005  -6.0509398e-008            
2.0993002e-005  -6.0977511e-008            
2.1192936e-005  -6.1481897e-008            
2.1392869e-005  -6.191553e-008            
2.1592802e-005  -6.212837e-008            
2.1792736e-005  -6.242286e-008            
2.1992669e-005  -6.2817272e-008            
2.2192602e-005  -6.321745e-008            
2.2392536e-005  -6.3640577e-008            
2.2592469e-005  -6.39282e-008            
2.2792403e-005  -6.4022618e-008            
2.2992336e-005  -6.4089827e-008            
2.3192269e-005  -6.4001322e-008            
2.3392203e-005  -6.4206521e-008            
2.3592136e-005  -6.4567683e-008            
2.3792069e-005  -6.4607805e-008            
2.3992003e-005  -6.4462249e-008            
2.4191936e-005  -6.3913265e-008            
2.4391869e-005  -6.3702561e-008            
2.4591803e-005  -6.3838748e-008            
2.4791736e-005  -6.3903986e-008            
2.4991669e-005  -6.3609022e-008            
2.5191603e-005  -6.3254051e-008            
2.5391536e-005  -6.2597199e-008            
2.5591469e-005  -6.2441851e-008            
2.5791403e-005  -6.2335364e-008            
2.5991336e-005  -6.2237168e-008            
2.619127e-005  -6.2092396e-008            
2.6391203e-005  -6.1815946e-008            
2.6591136e-005  -6.1653434e-008            
2.679107e-005  -6.1472691e-008            
2.6991003e-005  -6.1368234e-008            
2.7190936e-005  -6.1353737e-008            
2.739087e-005  -6.1345946e-008            
2.7590803e-005  -6.1216131e-008            
2.7790736e-005  -6.096993e-008            
2.799067e-005  -6.101002e-008            
2.8190603e-005  -6.0982988e-008            
2.8390536e-005  -6.1016704e-008            
2.859047e-005  -6.092936e-008            
2.8790403e-005  -6.0883038e-008            
2.8990337e-005  -6.0864457e-008            
2.919027e-005  -6.102928e-008            
2.9390203e-005  -6.1121992e-008            
2.9590137e-005  -6.1149936e-008            
2.979007e-005  -6.1177703e-008            
2.9990003e-005  -6.1102967e-008            
3.0189937e-005  -6.1120793e-008            
3.038987e-005  -6.1138665e-008            
3.0589803e-005  -6.1272823e-008            
3.0789737e-005  -6.1447296e-008            
3.098967e-005  -6.1356503e-008            
3.1189603e-005  -6.135664e-008            
3.1389537e-005  -6.1525201e-008            
3.158947e-005  -6.1858987e-008            
3.1789404e-005  -6.2157433e-008            
3.1989337e-005  -6.227015e-008            
3.218927e-005  -6.2204231e-008            
3.2389204e-005  -6.2358066e-008            
3.2589137e-005  -6.260191e-008            
3.278907e-005  -6.273039e-008            
3.2989004e-005  -6.2859856e-008            
3.3188937e-005  -6.2861844e-008            
3.338887e-005  -6.3190662e-008            
3.3588804e-005  -6.335264e-008            
3.3788737e-005  -6.3354081e-008            
3.398867e-005  -6.3651792e-008            
3.4188604e-005  -6.400909e-008            
3.4388537e-005  -6.4433735e-008            
3.458847e-005  -6.4736952e-008            
3.4788404e-005  -6.4900957e-008            
3.4988337e-005  -6.5110946e-008            
3.5188271e-005  -6.5641449e-008            
3.5388204e-005  -6.6231288e-008            
3.5588137e-005  -6.653641e-008            
3.5788071e-005  -6.6700457e-008            
3.5988004e-005  -6.6949362e-008            
3.6187937e-005  -6.739616e-008            
3.6387871e-005  -6.7801043e-008            
3.6587804e-005  -6.8125803e-008            
3.6787737e-005  -6.8367786e-008            
3.6987671e-005  -6.8664204e-008            
3.7187604e-005  -6.9026049e-008            
3.7387537e-005  -6.9419467e-008            
3.7587471e-005  -6.9896955e-008            
3.7787404e-005  -7.020222e-008            
3.7987338e-005  -7.0633133e-008            
3.8187271e-005  -7.1131006e-008            
3.8387204e-005  -7.1475063e-008            
3.8587138e-005  -7.1786609e-008            
3.8787071e-005  -7.2156207e-008            
3.8987004e-005  -7.2512763e-008            
3.9186938e-005  -7.2954172e-008            
3.9386871e-005  -7.3212838e-008            
3.9586804e-005  -7.3413993e-008            
3.9786738e-005  -7.3684493e-008            
3.9986671e-005  -7.3928089e-008            
4.0186604e-005  -7.4396655e-008            
4.0386538e-005  -7.4749632e-008            
4.0586471e-005  -7.4855584e-008            
4.0786405e-005  -7.5000546e-008            
4.0986338e-005  -7.5009565e-008            
4.1186271e-005  -7.5214349e-008            
4.1386205e-005  -7.5444014e-008            
4.1586138e-005  -7.5706107e-008            
4.1786071e-005  -7.5812397e-008            
4.1986005e-005  -7.5950624e-008            
4.2185938e-005  -7.5882101e-008            
4.2385871e-005  -7.6151148e-008            
4.2585805e-005  -7.6387495e-008            
4.2785738e-005  -7.6422066e-008            
4.2985671e-005  -7.6720027e-008            
4.3185605e-005  -7.6873034e-008            
4.3385538e-005  -7.7025849e-008            
4.3585471e-005  -7.7159655e-008            
4.3785405e-005  -7.7377445e-008            
4.3985338e-005  -7.7630577e-008            
4.4185272e-005  -7.7927669e-008            
4.4385205e-005  -7.8013977e-008            
4.4585138e-005  -7.8105304e-008            
4.4785072e-005  -7.8240184e-008            
4.4985005e-005  -7.8557386e-008            
4.5184938e-005  -7.9169094e-008            
4.5384872e-005  -7.9684705e-008            
4.5584805e-005  -8.0003331e-008            
4.5784738e-005  -7.9956333e-008            
4.5984672e-005  -8.031161e-008            
4.6184605e-005  -8.096636e-008            
4.6384538e-005  -8.1658388e-008            
4.6584472e-005  -8.2280409e-008            
4.6784405e-005  -8.2644104e-008            
4.6984339e-005  -8.3321603e-008            
4.7184272e-005  -8.4156835e-008            
4.7384205e-005  -8.4980993e-008            
4.7584139e-005  -8.5707063e-008            
4.7784072e-005  -8.646618e-008            
4.7984005e-005  -8.7146404e-008            
4.8183939e-005  -8.7792091e-008            
4.8383872e-005  -8.8487596e-008            
4.8583805e-005  -8.935142e-008            
4.8783739e-005  -9.0324614e-008            
4.8983672e-005  -9.152971e-008            
4.9183605e-005  -9.2328866e-008            
4.9383539e-005  -9.3049922e-008            
4.9583472e-005  -9.3966911e-008            
4.9783406e-005  -9.5162492e-008            
4.9983339e-005  -9.6255107e-008            
5.0183272e-005  -9.7406337e-008            
5.0383206e-005  -9.8127558e-008            
5.0583139e-005  -9.8839913e-008            
5.0783072e-005  -9.9741395e-008            
5.0983006e-005  -1.0088529e-007            
5.1182939e-005  -1.0214408e-007            
5.1382872e-005  -1.0335021e-007            
5.1582806e-005  -1.0419637e-007            
5.1782739e-005  -1.0511557e-007            
5.1982672e-005  -1.0598618e-007            
5.2182606e-005  -1.069779e-007            
5.2382539e-005  -1.0823285e-007            
5.2582472e-005  -1.0914201e-007            
5.2782406e-005  -1.1017271e-007            
5.2982339e-005  -1.110445e-007            
5.3182273e-005  -1.1207229e-007            
5.3382206e-005  -1.1330626e-007            
5.3582139e-005  -1.1449939e-007            
5.3782073e-005  -1.1574694e-007            
5.3982006e-005  -1.1685181e-007            
5.4181939e-005  -1.1809308e-007            
5.4381873e-005  -1.1933185e-007            
5.4581806e-005  -1.2045122e-007            
5.4781739e-005  -1.2169208e-007            
5.4981673e-005  -1.2303937e-007            
5.5181606e-005  -1.2436044e-007            
5.5381539e-005  -1.2545933e-007            
5.5581473e-005  -1.2651393e-007            
5.5781406e-005  -1.2784131e-007            
5.598134e-005  -1.2941326e-007            
5.6181273e-005  -1.309266e-007            
5.6381206e-005  -1.3244987e-007            
5.658114e-005  -1.337025e-007            
5.6781073e-005  -1.350397e-007            
5.6981006e-005  -1.3666463e-007            
5.718094e-005  -1.3831817e-007            
5.7380873e-005  -1.3989869e-007            
5.7580806e-005  -1.4150125e-007            
5.778074e-005  -1.4318988e-007            
5.7980673e-005  -1.4491875e-007            
5.8180606e-005  -1.4686276e-007            
5.838054e-005  -1.4870606e-007            
5.8580473e-005  -1.5081198e-007            
5.8780407e-005  -1.5280689e-007            
5.898034e-005  -1.5483038e-007            
5.9180273e-005  -1.5697963e-007            
5.9380207e-005  -1.5886197e-007            
5.958014e-005  -1.6101537e-007            
5.9780073e-005  -1.6319131e-007            
5.9980007e-005  -1.6513476e-007            
6.017994e-005  -1.6718258e-007            
6.0379873e-005  -1.6916853e-007            
6.0579807e-005  -1.7127605e-007            
6.077974e-005  -1.7340689e-007            
6.0979673e-005  -1.7549555e-007            
6.1179607e-005  -1.7744572e-007            
6.137954e-005  -1.7947111e-007            
6.1579473e-005  -1.8152008e-007            
6.1779407e-005  -1.8373977e-007            
6.197934e-005  -1.8571584e-007            
6.2179274e-005  -1.8790055e-007            
6.2379207e-005  -1.8990756e-007            
6.257914e-005  -1.9202994e-007            
6.2779074e-005  -1.9419423e-007            
6.2979007e-005  -1.9643891e-007            
6.317894e-005  -1.9857313e-007            
6.3378874e-005  -2.0073589e-007            
6.3578807e-005  -2.0292074e-007            
6.377874e-005  -2.0488605e-007            
6.3978674e-005  -2.0683846e-007            
6.4178607e-005  -2.0885588e-007            
6.437854e-005  -2.11055e-007            
6.4578474e-005  -2.1313757e-007            
6.4778407e-005  -2.1518975e-007            
6.4978341e-005  -2.1693951e-007            
6.5178274e-005  -2.1883098e-007            
6.5378207e-005  -2.2081754e-007            
6.5578141e-005  -2.2282022e-007            
6.5778074e-005  -2.2474194e-007            
6.5978007e-005  -2.2670848e-007            
6.6177941e-005  -2.2834192e-007            
6.6377874e-005  -2.3021927e-007            
6.6577807e-005  -2.3216322e-007            
6.6777741e-005  -2.3405945e-007            
6.6977674e-005  -2.3594169e-007            
6.7177607e-005  -2.3779716e-007            
6.7377541e-005  -2.394122e-007            
6.7577474e-005  -2.4120797e-007            
6.7777407e-005  -2.4307e-007            
6.7977341e-005  -2.4511411e-007            
6.8177274e-005  -2.47115e-007            
6.8377208e-005  -2.4879731e-007            
6.8577141e-005  -2.5052469e-007            
6.8777074e-005  -2.5232682e-007            
6.8977008e-005  -2.5438092e-007            
6.9176941e-005  -2.5649851e-007            
6.9376874e-005  -2.585126e-007            
6.9576808e-005  -2.6047665e-007            
6.9776741e-005  -2.621678e-007            
6.9976674e-005  -2.6398935e-007            
7.0176608e-005  -2.6592263e-007            
7.0376541e-005  -2.6798705e-007            
7.0576474e-005  -2.6996726e-007            
7.0776408e-005  -2.7175096e-007            
7.0976341e-005  -2.7329433e-007            
7.1176275e-005  -2.7499542e-007            
7.1376208e-005  -2.7680777e-007            
7.1576141e-005  -2.7860057e-007            
7.1776075e-005  -2.8039835e-007            
7.1976008e-005  -2.8203604e-007            
7.2175941e-005  -2.8359756e-007            
7.2375875e-005  -2.8507959e-007            
7.2575808e-005  -2.8683112e-007            
7.2775741e-005  -2.8889807e-007            
7.2975675e-005  -2.9089819e-007            
7.3175608e-005  -2.9274493e-007            
7.3375541e-005  -2.9435926e-007            
7.3575475e-005  -2.9615286e-007            
7.3775408e-005  -2.9830586e-007            
7.3975342e-005  -3.0044213e-007            
7.4175275e-005  -3.0231268e-007            
7.4375208e-005  -3.0421037e-007            
7.4575142e-005  -3.059162e-007            
7.4775075e-005  -3.0780918e-007            
7.4975008e-005  -3.096356e-007            
7.5174942e-005  -3.1142121e-007            
7.5374875e-005  -3.1328581e-007            
7.5574808e-005  -3.1499544e-007            
7.5774742e-005  -3.1633395e-007            
7.5974675e-005  -3.1774964e-007            
7.6174608e-005  -3.1926441e-007            
7.6374542e-005  -3.2113255e-007            
7.6574475e-005  -3.2288108e-007            
7.6774408e-005  -3.2427508e-007            
7.6974342e-005  -3.2538334e-007            
7.7174275e-005  -3.2673587e-007            
7.7374209e-005  -3.2822619e-007            
7.7574142e-005  -3.2963647e-007            
7.7774075e-005  -3.3071852e-007            
7.7974009e-005  -3.3192282e-007            
7.8173942e-005  -3.3303788e-007            
7.8373875e-005  -3.3431018e-007            
7.8573809e-005  -3.3538751e-007            
7.8773742e-005  -3.3651559e-007            
7.8973675e-005  -3.3780782e-007            
7.9173609e-005  -3.3887366e-007            
7.9373542e-005  -3.3973056e-007            
7.9573475e-005  -3.4064615e-007            
7.9773409e-005  -3.4169581e-007            
7.9973342e-005  -3.4292611e-007            
8.0173276e-005  -3.4398384e-007            
8.0373209e-005  -3.4483935e-007            
8.0573142e-005  -3.4565868e-007            
8.0773076e-005  -3.4660055e-007            
8.0973009e-005  -3.4745725e-007            
8.1172942e-005  -3.484385e-007            
8.1372876e-005  -3.4927858e-007            
8.1572809e-005  -3.5008967e-007            
8.1772742e-005  -3.5100299e-007            
8.1972676e-005  -3.5164156e-007            
8.2172609e-005  -3.5228278e-007            
8.2372542e-005  -3.5311698e-007            
8.2572476e-005  -3.5396237e-007            
8.2772409e-005  -3.5484525e-007            
8.2972343e-005  -3.5537347e-007            
8.3172276e-005  -3.5566457e-007            
8.3372209e-005  -3.5622754e-007            
8.3572143e-005  -3.5692218e-007            
8.3772076e-005  -3.57699e-007            
8.3972009e-005  -3.5818314e-007            
8.4171943e-005  -3.5856673e-007            
8.4371876e-005  -3.5903191e-007            
8.4571809e-005  -3.5959252e-007            
8.4771743e-005  -3.6024301e-007            
8.4971676e-005  -3.6076379e-007            
8.5171609e-005  -3.6136498e-007            
8.5371543e-005  -3.619179e-007            
8.5571476e-005  -3.6217753e-007            
8.5771409e-005  -3.6256654e-007            
8.5971343e-005  -3.6293686e-007            
8.6171276e-005  -3.6345768e-007            
8.637121e-005  -3.640549e-007            
8.6571143e-005  -3.6432982e-007            
8.6771076e-005  -3.6460414e-007            
8.697101e-005  -3.6507777e-007            
8.7170943e-005  -3.6568249e-007            
8.7370876e-005  -3.6642609e-007            
8.757081e-005  -3.6687068e-007            
8.7770743e-005  -3.6715496e-007            
8.7970676e-005  -3.675541e-007            
8.817061e-005  -3.6807914e-007            
8.8370543e-005  -3.6874018e-007            
8.8570476e-005  -3.6949329e-007            
8.877041e-005  -3.7016989e-007            
8.8970343e-005  -3.7066643e-007            
8.9170277e-005  -3.7110076e-007            
8.937021e-005  -3.7135051e-007            
8.9570143e-005  -3.7189978e-007            
8.9770077e-005  -3.7253103e-007            
8.997001e-005  -3.7310935e-007            
9.0169943e-005  -3.7350811e-007            
9.0369877e-005  -3.7366991e-007            
9.056981e-005  -3.7430517e-007            
9.0769743e-005  -3.7501674e-007            
