Surface Profile             
x       y           
[m]     [m]         
0  3.2068484e-009            
1.9993336e-007  3.7984895e-009            
3.9986671e-007  4.0931322e-009            
5.9980007e-007  4.6094468e-009            
7.9973342e-007  4.8597933e-009            
9.9966678e-007  5.2446304e-009            
1.1996001e-006  5.7668954e-009            
1.3995335e-006  6.1429198e-009            
1.5994668e-006  6.4641771e-009            
1.7994002e-006  6.8530134e-009            
1.9993336e-006  7.4043714e-009            
2.1992669e-006  7.9958757e-009            
2.3992003e-006  8.6475804e-009            
2.5991336e-006  9.1926696e-009            
2.799067e-006  9.9495401e-009            
2.9990003e-006  1.0491632e-008            
3.1989337e-006  1.098503e-008            
3.398867e-006  1.1533587e-008            
3.5988004e-006  1.2348956e-008            
3.7987338e-006  1.3212492e-008            
3.9986671e-006  1.401267e-008            
4.1986005e-006  1.4822173e-008            
4.3985338e-006  1.5558429e-008            
4.5984672e-006  1.652715e-008            
4.7984005e-006  1.7661374e-008            
4.9983339e-006  1.8878276e-008            
5.1982672e-006  1.988238e-008            
5.3982006e-006  2.0866236e-008            
5.598134e-006  2.1958733e-008            
5.7980673e-006  2.3057015e-008            
5.9980007e-006  2.4386613e-008            
6.197934e-006  2.5508905e-008            
6.3978674e-006  2.6947718e-008            
6.5978007e-006  2.8059423e-008            
6.7977341e-006  2.9058244e-008            
6.9976674e-006  3.0243e-008            
7.1976008e-006  3.1358315e-008            
7.3975342e-006  3.2714846e-008            
7.5974675e-006  3.3932944e-008            
7.7974009e-006  3.5024863e-008            
7.9973342e-006  3.5952955e-008            
8.1972676e-006  3.7025425e-008            
8.3972009e-006  3.8061032e-008            
8.5971343e-006  3.938631e-008            
8.7970676e-006  4.0431451e-008            
8.997001e-006  4.1300071e-008            
9.1969344e-006  4.2419859e-008            
9.3968677e-006  4.3362174e-008            
9.5968011e-006  4.4556248e-008            
9.7967344e-006  4.545356e-008            
9.9966678e-006  4.6334674e-008            
1.0196601e-005  4.7326226e-008            
1.0396534e-005  4.8227998e-008            
1.0596468e-005  4.9156469e-008            
1.0796401e-005  5.0089348e-008            
1.0996335e-005  5.0980506e-008            
1.1196268e-005  5.1782779e-008            
1.1396201e-005  5.2563627e-008            
1.1596135e-005  5.3324479e-008            
1.1796068e-005  5.4097492e-008            
1.1996001e-005  5.4965365e-008            
1.2195935e-005  5.5661875e-008            
1.2395868e-005  5.6422724e-008            
1.2595801e-005  5.7044552e-008            
1.2795735e-005  5.7683257e-008            
1.2995668e-005  5.8387461e-008            
1.3195601e-005  5.9169936e-008            
1.3395535e-005  5.9803333e-008            
1.3595468e-005  6.0128729e-008            
1.3795402e-005  6.0377572e-008            
1.3995335e-005  6.0802196e-008            
1.4195268e-005  6.1391545e-008            
1.4395202e-005  6.2097964e-008            
1.4595135e-005  6.2504085e-008            
1.4795068e-005  6.2797282e-008            
1.4995002e-005  6.3145385e-008            
1.5194935e-005  6.3498431e-008            
1.5394868e-005  6.3982981e-008            
1.5594802e-005  6.4517326e-008            
1.5794735e-005  6.4957257e-008            
1.5994668e-005  6.5287596e-008            
1.6194602e-005  6.5419568e-008            
1.6394535e-005  6.5701035e-008            
1.6594469e-005  6.6003499e-008            
1.6794402e-005  6.6340325e-008            
1.6994335e-005  6.6774195e-008            
1.7194269e-005  6.6938666e-008            
1.7394202e-005  6.7155887e-008            
1.7594135e-005  6.7379168e-008            
1.7794069e-005  6.7749986e-008            
1.7994002e-005  6.8274033e-008            
1.8193935e-005  6.8680879e-008            
1.8393869e-005  6.8956778e-008            
1.8593802e-005  6.9191079e-008            
1.8793735e-005  6.9402567e-008            
1.8993669e-005  6.9785183e-008            
1.9193602e-005  7.0326821e-008            
1.9393535e-005  7.0836926e-008            
1.9593469e-005  7.1194402e-008            
1.9793402e-005  7.1495392e-008            
1.9993336e-005  7.1603631e-008            
2.0193269e-005  7.1836123e-008            
2.0393202e-005  7.2287519e-008            
2.0593136e-005  7.2696735e-008            
2.0793069e-005  7.2891442e-008            
2.0993002e-005  7.3020994e-008            
2.1192936e-005  7.323002e-008            
2.1392869e-005  7.3614838e-008            
2.1592802e-005  7.4079532e-008            
2.1792736e-005  7.4432164e-008            
2.1992669e-005  7.4658252e-008            
2.2192602e-005  7.5016451e-008            
2.2392536e-005  7.5224823e-008            
2.2592469e-005  7.5514375e-008            
2.2792403e-005  7.5740824e-008            
2.2992336e-005  7.5929159e-008            
2.3192269e-005  7.6486022e-008            
2.3392203e-005  7.6790967e-008            
2.3592136e-005  7.6973995e-008            
2.3792069e-005  7.7344484e-008            
2.3992003e-005  7.7748297e-008            
2.4191936e-005  7.8382677e-008            
2.4391869e-005  7.8687868e-008            
2.4591803e-005  7.8855668e-008            
2.4791736e-005  7.9082514e-008            
2.4991669e-005  7.947318e-008            
2.5191603e-005  7.9812663e-008            
2.5391536e-005  8.0283415e-008            
2.5591469e-005  8.047196e-008            
2.5791403e-005  8.0875796e-008            
2.5991336e-005  8.1288966e-008            
2.619127e-005  8.1603266e-008            
2.6391203e-005  8.2126564e-008            
2.6591136e-005  8.2671453e-008            
2.679107e-005  8.3279191e-008            
2.6991003e-005  8.374499e-008            
2.7190936e-005  8.4034773e-008            
2.739087e-005  8.4319083e-008            
2.7590803e-005  8.4932705e-008            
2.7790736e-005  8.5557714e-008            
2.799067e-005  8.5978479e-008            
2.8190603e-005  8.6074998e-008            
2.8390536e-005  8.65185e-008            
2.859047e-005  8.707293e-008            
2.8790403e-005  8.7607701e-008            
2.8990337e-005  8.827701e-008            
2.919027e-005  8.8704859e-008            
2.9390203e-005  8.9261375e-008            
2.9590137e-005  8.9601303e-008            
2.979007e-005  8.9821532e-008            
2.9990003e-005  9.0390328e-008            
3.0189937e-005  9.0966339e-008            
3.038987e-005  9.1529777e-008            
3.0589803e-005  9.1938386e-008            
3.0789737e-005  9.2184215e-008            
3.098967e-005  9.2493243e-008            
3.1189603e-005  9.3129402e-008            
3.1389537e-005  9.3675887e-008            
3.158947e-005  9.4121659e-008            
3.1789404e-005  9.4251009e-008            
3.1989337e-005  9.438902e-008            
3.218927e-005  9.4842391e-008            
3.2389204e-005  9.522232e-008            
3.2589137e-005  9.5666659e-008            
3.278907e-005  9.6050689e-008            
3.2989004e-005  9.6406295e-008            
3.3188937e-005  9.6798227e-008            
3.338887e-005  9.7077675e-008            
3.3588804e-005  9.7265576e-008            
3.3788737e-005  9.7664017e-008            
3.398867e-005  9.793731e-008            
3.4188604e-005  9.8101893e-008            
3.4388537e-005  9.821299e-008            
3.458847e-005  9.8240231e-008            
3.4788404e-005  9.8470111e-008            
3.4988337e-005  9.8691964e-008            
3.5188271e-005  9.8720408e-008            
3.5388204e-005  9.8645583e-008            
3.5588137e-005  9.8529385e-008            
3.5788071e-005  9.8591588e-008            
3.5988004e-005  9.863427e-008            
3.6187937e-005  9.8588851e-008            
3.6387871e-005  9.8377987e-008            
3.6587804e-005  9.8246132e-008            
3.6787737e-005  9.8171893e-008            
3.6987671e-005  9.8013463e-008            
3.7187604e-005  9.7917383e-008            
3.7387537e-005  9.7818619e-008            
3.7587471e-005  9.7646131e-008            
3.7787404e-005  9.7390231e-008            
3.7987338e-005  9.698598e-008            
3.8187271e-005  9.6598535e-008            
3.8387204e-005  9.643203e-008            
3.8587138e-005  9.625927e-008            
3.8787071e-005  9.5878819e-008            
3.8987004e-005  9.5478611e-008            
3.9186938e-005  9.5057961e-008            
3.9386871e-005  9.4841428e-008            
3.9586804e-005  9.4554092e-008            
3.9786738e-005  9.422207e-008            
3.9986671e-005  9.4038368e-008            
4.0186604e-005  9.3801039e-008            
4.0386538e-005  9.3431607e-008            
4.0586471e-005  9.3080844e-008            
4.0786405e-005  9.2766043e-008            
4.0986338e-005  9.2594183e-008            
4.1186271e-005  9.2475466e-008            
4.1386205e-005  9.2066829e-008            
4.1586138e-005  9.1747311e-008            
4.1786071e-005  9.1457671e-008            
4.1986005e-005  9.1295486e-008            
4.2185938e-005  9.1142134e-008            
4.2385871e-005  9.082056e-008            
4.2585805e-005  9.0684901e-008            
4.2785738e-005  9.0368105e-008            
4.2985671e-005  9.0174271e-008            
4.3185605e-005  9.0042271e-008            
4.3385538e-005  9.0014574e-008            
4.3585471e-005  8.9906909e-008            
4.3785405e-005  8.972575e-008            
4.3985338e-005  8.9528672e-008            
4.4185272e-005  8.940199e-008            
4.4385205e-005  8.9423413e-008            
4.4585138e-005  8.9602848e-008            
4.4785072e-005  8.9785084e-008            
4.4985005e-005  8.9813876e-008            
4.5184938e-005  8.9961907e-008            
4.5384872e-005  8.9963562e-008            
4.5584805e-005  8.9975401e-008            
4.5784738e-005  9.0093798e-008            
4.5984672e-005  9.0231413e-008            
4.6184605e-005  9.0457281e-008            
4.6384538e-005  9.0432483e-008            
4.6584472e-005  9.0383875e-008            
4.6784405e-005  9.0615242e-008            
4.6984339e-005  9.0828345e-008            
4.7184272e-005  9.1001235e-008            
4.7384205e-005  9.1054057e-008            
4.7584139e-005  9.0953481e-008            
4.7784072e-005  9.0981593e-008            
4.7984005e-005  9.123565e-008            
4.8183939e-005  9.1414062e-008            
4.8383872e-005  9.1605819e-008            
4.8583805e-005  9.1619088e-008            
4.8783739e-005  9.1689457e-008            
4.8983672e-005  9.1819919e-008            
4.9183605e-005  9.1714305e-008            
4.9383539e-005  9.1908684e-008            
4.9583472e-005  9.1966824e-008            
4.9783406e-005  9.2106577e-008            
4.9983339e-005  9.1925121e-008            
5.0183272e-005  9.1932e-008            
5.0383206e-005  9.2054192e-008            
5.0583139e-005  9.2497092e-008            
5.0783072e-005  9.2579424e-008            
5.0983006e-005  9.250685e-008            
5.1182939e-005  9.2399186e-008            
5.1382872e-005  9.2366045e-008            
5.1582806e-005  9.2629046e-008            
5.1782739e-005  9.2679119e-008            
5.1982672e-005  9.2671225e-008            
5.2182606e-005  9.2584168e-008            
5.2382539e-005  9.2465034e-008            
5.2582472e-005  9.2408478e-008            
5.2782406e-005  9.2347091e-008            
5.2982339e-005  9.2654584e-008            
5.3182273e-005  9.2897097e-008            
5.3382206e-005  9.2841117e-008            
5.3582139e-005  9.2668551e-008            
5.3782073e-005  9.2695156e-008            
5.3982006e-005  9.2774382e-008            
5.4181939e-005  9.3121143e-008            
5.4381873e-005  9.3232974e-008            
5.4581806e-005  9.3193815e-008            
5.4781739e-005  9.3199172e-008            
5.4981673e-005  9.3161288e-008            
5.5181606e-005  9.3335289e-008            
5.5381539e-005  9.361966e-008            
5.5581473e-005  9.3916741e-008            
5.5781406e-005  9.4101431e-008            
5.598134e-005  9.404024e-008            
5.6181273e-005  9.4078189e-008            
5.6381206e-005  9.4280066e-008            
5.658114e-005  9.4496469e-008            
5.6781073e-005  9.4828286e-008            
5.6981006e-005  9.4904861e-008            
5.718094e-005  9.4960038e-008            
5.7380873e-005  9.4818083e-008            
5.7580806e-005  9.4702326e-008            
5.778074e-005  9.4938789e-008            
5.7980673e-005  9.507426e-008            
5.8180606e-005  9.4825332e-008            
5.838054e-005  9.4772633e-008            
5.8580473e-005  9.4553721e-008            
5.8780407e-005  9.4534416e-008            
5.898034e-005  9.4567767e-008            
5.9180273e-005  9.4336817e-008            
5.9380207e-005  9.4232132e-008            
5.958014e-005  9.4079223e-008            
5.9780073e-005  9.3786119e-008            
5.9980007e-005  9.3304893e-008            
6.017994e-005  9.3003502e-008            
6.0379873e-005  9.2811e-008            
6.0579807e-005  9.2570307e-008            
6.077974e-005  9.1973849e-008            
6.0979673e-005  9.1492148e-008            
6.1179607e-005  9.0976073e-008            
6.137954e-005  9.0775539e-008            
6.1579473e-005  9.0241749e-008            
6.1779407e-005  8.9672882e-008            
6.197934e-005  8.9104306e-008            
6.2179274e-005  8.8664589e-008            
6.2379207e-005  8.8154808e-008            
6.257914e-005  8.7570208e-008            
6.2779074e-005  8.69402e-008            
6.2979007e-005  8.6613199e-008            
6.317894e-005  8.6021603e-008            
6.3378874e-005  8.5382515e-008            
6.3578807e-005  8.4655654e-008            
6.377874e-005  8.4098379e-008            
6.3978674e-005  8.3625882e-008            
6.4178607e-005  8.305046e-008            
6.437854e-005  8.2252831e-008            
6.4578474e-005  8.1541438e-008            
6.4778407e-005  8.0801793e-008            
6.4978341e-005  8.0349495e-008            
6.5178274e-005  7.9958537e-008            
6.5378207e-005  7.929113e-008            
6.5578141e-005  7.8762178e-008            
6.5778074e-005  7.8105827e-008            
6.5978007e-005  7.7376977e-008            
6.6177941e-005  7.6773221e-008            
6.6377874e-005  7.6372797e-008            
6.6577807e-005  7.6231723e-008            
6.6777741e-005  7.579938e-008            
6.6977674e-005  7.5100142e-008            
6.7177607e-005  7.4474478e-008            
6.7377541e-005  7.4176432e-008            
6.7577474e-005  7.3666422e-008            
6.7777407e-005  7.338964e-008            
6.7977341e-005  7.2684695e-008            
6.8177274e-005  7.1865685e-008            
6.8377208e-005  7.1205438e-008            
6.8577141e-005  7.0544666e-008            
6.8777074e-005  7.0036933e-008            
6.8977008e-005  6.933456e-008            
6.9176941e-005  6.8660461e-008            
6.9376874e-005  6.7833561e-008            
6.9576808e-005  6.7007685e-008            
6.9776741e-005  6.6325382e-008            
6.9976674e-005  6.5631176e-008            
7.0176608e-005  6.5053679e-008            
7.0376541e-005  6.429409e-008            
7.0576474e-005  6.3454924e-008            
7.0776408e-005  6.2519469e-008            
7.0976341e-005  6.1852159e-008            
7.1176275e-005  6.1219584e-008            
7.1376208e-005  6.0674533e-008            
7.1576141e-005  5.9790417e-008            
7.1776075e-005  5.8812124e-008            
7.1976008e-005  5.8061884e-008            
7.2175941e-005  5.7339086e-008            
7.2375875e-005  5.6712612e-008            
7.2575808e-005  5.6177221e-008            
7.2775741e-005  5.5567994e-008            
7.2975675e-005  5.4857197e-008            
7.3175608e-005  5.416498e-008            
7.3375541e-005  5.3555885e-008            
7.3575475e-005  5.3223591e-008            
7.3775408e-005  5.2652555e-008            
7.3975342e-005  5.1841719e-008            
7.4175275e-005  5.1125997e-008            
7.4375208e-005  5.0409961e-008            
7.4575142e-005  5.0040297e-008            
7.4775075e-005  4.9425965e-008            
7.4975008e-005  4.8810416e-008            
7.5174942e-005  4.8261979e-008            
7.5374875e-005  4.7646865e-008            
7.5574808e-005  4.7276358e-008            
7.5774742e-005  4.6773782e-008            
7.5974675e-005  4.6246209e-008            
7.6174608e-005  4.5992871e-008            
7.6374542e-005  4.5569554e-008            
7.6574475e-005  4.5144878e-008            
7.6774408e-005  4.4673882e-008            
7.6974342e-005  4.4406118e-008            
7.7174275e-005  4.4114911e-008            
7.7374209e-005  4.3490808e-008            
7.7574142e-005  4.2952867e-008            
7.7774075e-005  4.2423771e-008            
7.7974009e-005  4.2053117e-008            
7.8173942e-005  4.1701383e-008            
7.8373875e-005  4.1226071e-008            
7.8573809e-005  4.0788141e-008            
7.8773742e-005  4.02613e-008            
7.8973675e-005  3.9588754e-008            
7.9173609e-005  3.9015172e-008            
7.9373542e-005  3.8538296e-008            
7.9573475e-005  3.8054925e-008            
7.9773409e-005  3.7402698e-008            
7.9973342e-005  3.6866959e-008            
8.0173276e-005  3.5958074e-008            
8.0373209e-005  3.5419364e-008            
8.0573142e-005  3.4781676e-008            
8.0773076e-005  3.4118288e-008            
8.0973009e-005  3.3232433e-008            
8.1172942e-005  3.2234231e-008            
8.1372876e-005  3.1389891e-008            
8.1572809e-005  3.0572758e-008            
8.1772742e-005  2.9571822e-008            
8.1972676e-005  2.8477914e-008            
8.2172609e-005  2.7350611e-008            
8.2372542e-005  2.6424963e-008            
8.2572476e-005  2.544525e-008            
8.2772409e-005  2.4100033e-008            
8.2972343e-005  2.2703158e-008            
8.3172276e-005  2.1489209e-008            
8.3372209e-005  2.0417292e-008            
8.3572143e-005  1.9156192e-008            
8.3772076e-005  1.7547938e-008            
8.3972009e-005  1.6190307e-008            
8.4171943e-005  1.489594e-008            
8.4371876e-005  1.3569426e-008            
8.4571809e-005  1.2079181e-008            
8.4771743e-005  1.0438863e-008            
8.4971676e-005  9.050779e-009            
8.5171609e-005  7.6751916e-009            
8.5371543e-005  6.0362587e-009            
8.5571476e-005  4.3580585e-009            
8.5771409e-005  2.9625616e-009            
8.5971343e-005  1.7325489e-009            
8.6171276e-005  4.6839163e-010            
8.637121e-005  -1.2231182e-009            
8.6571143e-005  -2.8646582e-009            
8.6771076e-005  -4.3080493e-009            
8.697101e-005  -5.5243866e-009            
8.7170943e-005  -6.7964599e-009            
8.7370876e-005  -8.4622597e-009            
8.757081e-005  -1.0251864e-008            
8.7770743e-005  -1.1654346e-008            
8.7970676e-005  -1.3120924e-008            
8.817061e-005  -1.46209e-008            
8.8370543e-005  -1.6282375e-008            
8.8570476e-005  -1.7710492e-008            
8.877041e-005  -1.9333642e-008            
8.8970343e-005  -2.0981715e-008            
8.9170277e-005  -2.2744812e-008            
8.937021e-005  -2.4090372e-008            
8.9570143e-005  -2.5377561e-008            
8.9770077e-005  -2.6811132e-008            
8.997001e-005  -2.8547585e-008            
9.0169943e-005  -3.0142048e-008            
9.0369877e-005  -3.1397032e-008            
9.056981e-005  -3.2657961e-008            
9.0769743e-005  -3.420137e-008            
9.0969677e-005  -3.5953735e-008            
9.116961e-005  -3.7493746e-008            
9.1369543e-005  -3.8987081e-008            
9.1569477e-005  -4.0441029e-008            
9.176941e-005  -4.1988535e-008            
9.1969344e-005  -4.3499926e-008            
9.2169277e-005  -4.5052932e-008            
9.236921e-005  -4.6472693e-008            
9.2569144e-005  -4.8009401e-008            
9.2769077e-005  -4.9727921e-008            
