Surface Profile             
x       y           
[m]     [m]         
0  5.5022624e-009            
1.9993336e-007  6.4989071e-009            
3.9986671e-007  7.2503231e-009            
5.9980007e-007  7.9974128e-009            
7.9973342e-007  8.6219895e-009            
9.9966678e-007  9.2815429e-009            
1.1996001e-006  1.0302863e-008            
1.3995335e-006  1.1121808e-008            
1.5994668e-006  1.1905975e-008            
1.7994002e-006  1.2850599e-008            
1.9993336e-006  1.3838289e-008            
2.1992669e-006  1.4705737e-008            
2.3992003e-006  1.578272e-008            
2.5991336e-006  1.6782102e-008            
2.799067e-006  1.8066995e-008            
2.9990003e-006  1.9174363e-008            
3.1989337e-006  2.0197741e-008            
3.398867e-006  2.1430246e-008            
3.5988004e-006  2.2826989e-008            
3.7987338e-006  2.4169181e-008            
3.9986671e-006  2.5476271e-008            
4.1986005e-006  2.6735188e-008            
4.3985338e-006  2.8233613e-008            
4.5984672e-006  3.0008587e-008            
4.7984005e-006  3.1603594e-008            
4.9983339e-006  3.3107769e-008            
5.1982672e-006  3.4737895e-008            
5.3982006e-006  3.6524515e-008            
5.598134e-006  3.8306268e-008            
5.7980673e-006  4.0064335e-008            
5.9980007e-006  4.1872756e-008            
6.197934e-006  4.3706988e-008            
6.3978674e-006  4.5572773e-008            
6.5978007e-006  4.7274296e-008            
6.7977341e-006  4.8667865e-008            
6.9976674e-006  5.0792083e-008            
7.1976008e-006  5.2887405e-008            
7.3975342e-006  5.4795223e-008            
7.5974675e-006  5.6523887e-008            
7.7974009e-006  5.8108143e-008            
7.9973342e-006  5.9923613e-008            
8.1972676e-006  6.1989783e-008            
8.3972009e-006  6.3701008e-008            
8.5971343e-006  6.5630753e-008            
8.7970676e-006  6.7420733e-008            
8.997001e-006  6.9269185e-008            
9.1969344e-006  7.1422046e-008            
9.3968677e-006  7.3444532e-008            
9.5968011e-006  7.5541026e-008            
9.7967344e-006  7.760782e-008            
9.9966678e-006  7.9394872e-008            
1.0196601e-005  8.1288077e-008            
1.0396534e-005  8.3141823e-008            
1.0596468e-005  8.5066199e-008            
1.0796401e-005  8.7027728e-008            
1.0996335e-005  8.8984872e-008            
1.1196268e-005  9.0729011e-008            
1.1396201e-005  9.2388228e-008            
1.1596135e-005  9.3992589e-008            
1.1796068e-005  9.5708602e-008            
1.1996001e-005  9.7458928e-008            
1.2195935e-005  9.912564e-008            
1.2395868e-005  1.0060757e-007            
1.2595801e-005  1.0215444e-007            
1.2795735e-005  1.0363866e-007            
1.2995668e-005  1.051493e-007            
1.3195601e-005  1.067763e-007            
1.3395535e-005  1.0816751e-007            
1.3595468e-005  1.094419e-007            
1.3795402e-005  1.1087686e-007            
1.3995335e-005  1.1215522e-007            
1.4195268e-005  1.1343661e-007            
1.4395202e-005  1.148783e-007            
1.4595135e-005  1.1617562e-007            
1.4795068e-005  1.1746994e-007            
1.4995002e-005  1.1873794e-007            
1.5194935e-005  1.1979284e-007            
1.5394868e-005  1.2107036e-007            
1.5594802e-005  1.2234582e-007            
1.5794735e-005  1.2342919e-007            
1.5994668e-005  1.2463968e-007            
1.6194602e-005  1.2568701e-007            
1.6394535e-005  1.2685229e-007            
1.6594469e-005  1.2796712e-007            
1.6794402e-005  1.289549e-007            
1.6994335e-005  1.3009661e-007            
1.7194269e-005  1.3129195e-007            
1.7394202e-005  1.3228688e-007            
1.7594135e-005  1.3316169e-007            
1.7794069e-005  1.3397074e-007            
1.7994002e-005  1.3500002e-007            
1.8193935e-005  1.3616053e-007            
1.8393869e-005  1.3712283e-007            
1.8593802e-005  1.3801801e-007            
1.8793735e-005  1.3887868e-007            
1.8993669e-005  1.3975054e-007            
1.9193602e-005  1.4090225e-007            
1.9393535e-005  1.418845e-007            
1.9593469e-005  1.4276807e-007            
1.9793402e-005  1.4363601e-007            
1.9993336e-005  1.4442682e-007            
2.0193269e-005  1.4516328e-007            
2.0393202e-005  1.4595531e-007            
2.0593136e-005  1.4697645e-007            
2.0793069e-005  1.4774306e-007            
2.0993002e-005  1.4869405e-007            
2.1192936e-005  1.4952193e-007            
2.1392869e-005  1.5026468e-007            
2.1592802e-005  1.5099912e-007            
2.1792736e-005  1.5212126e-007            
2.1992669e-005  1.5304622e-007            
2.2192602e-005  1.5411032e-007            
2.2392536e-005  1.5473769e-007            
2.2592469e-005  1.5544676e-007            
2.2792403e-005  1.5636817e-007            
2.2992336e-005  1.5737132e-007            
2.3192269e-005  1.5835236e-007            
2.3392203e-005  1.5920469e-007            
2.3592136e-005  1.5987817e-007            
2.3792069e-005  1.6083331e-007            
2.3992003e-005  1.6192066e-007            
2.4191936e-005  1.6293014e-007            
2.4391869e-005  1.6405042e-007            
2.4591803e-005  1.6520075e-007            
2.4791736e-005  1.6611088e-007            
2.4991669e-005  1.6714138e-007            
2.5191603e-005  1.6823935e-007            
2.5391536e-005  1.6952411e-007            
2.5591469e-005  1.7075156e-007            
2.5791403e-005  1.7168637e-007            
2.5991336e-005  1.7255866e-007            
2.619127e-005  1.7351839e-007            
2.6391203e-005  1.746689e-007            
2.6591136e-005  1.756387e-007            
2.679107e-005  1.7666596e-007            
2.6991003e-005  1.7773661e-007            
2.7190936e-005  1.785985e-007            
2.739087e-005  1.7965808e-007            
2.7590803e-005  1.8072138e-007            
2.7790736e-005  1.8188374e-007            
2.799067e-005  1.8299407e-007            
2.8190603e-005  1.8389574e-007            
2.8390536e-005  1.8467266e-007            
2.859047e-005  1.8568912e-007            
2.8790403e-005  1.8665451e-007            
2.8990337e-005  1.8776009e-007            
2.919027e-005  1.8875067e-007            
2.9390203e-005  1.8955421e-007            
2.9590137e-005  1.9053229e-007            
2.979007e-005  1.9143325e-007            
2.9990003e-005  1.924482e-007            
3.0189937e-005  1.9346496e-007            
3.038987e-005  1.9412937e-007            
3.0589803e-005  1.9466978e-007            
3.0789737e-005  1.9529675e-007            
3.098967e-005  1.9606156e-007            
3.1189603e-005  1.9701359e-007            
3.1389537e-005  1.9754667e-007            
3.158947e-005  1.9797889e-007            
3.1789404e-005  1.98422e-007            
3.1989337e-005  1.9880986e-007            
3.218927e-005  1.9928729e-007            
3.2389204e-005  1.9962257e-007            
3.2589137e-005  2.0004352e-007            
3.278907e-005  2.0042782e-007            
3.2989004e-005  2.0067612e-007            
3.3188937e-005  2.0088425e-007            
3.338887e-005  2.009113e-007            
3.3588804e-005  2.0122801e-007            
3.3788737e-005  2.0165127e-007            
3.398867e-005  2.017119e-007            
3.4188604e-005  2.016375e-007            
3.4388537e-005  2.0166902e-007            
3.458847e-005  2.0186932e-007            
3.4788404e-005  2.0209589e-007            
3.4988337e-005  2.0216163e-007            
3.5188271e-005  2.0194912e-007            
3.5388204e-005  2.0194361e-007            
3.5588137e-005  2.0187436e-007            
3.5788071e-005  2.0186446e-007            
3.5988004e-005  2.0177681e-007            
3.6187937e-005  2.0162388e-007            
3.6387871e-005  2.0157593e-007            
3.6587804e-005  2.0166305e-007            
3.6787737e-005  2.0153905e-007            
3.6987671e-005  2.0146837e-007            
3.7187604e-005  2.0155394e-007            
3.7387537e-005  2.0154691e-007            
3.7587471e-005  2.0138212e-007            
3.7787404e-005  2.0115518e-007            
3.7987338e-005  2.0106453e-007            
3.8187271e-005  2.0086315e-007            
3.8387204e-005  2.0091449e-007            
3.8587138e-005  2.0072096e-007            
3.8787071e-005  2.0050081e-007            
3.8987004e-005  2.0036548e-007            
3.9186938e-005  2.0009038e-007            
3.9386871e-005  1.9980063e-007            
3.9586804e-005  1.9961884e-007            
3.9786738e-005  1.9941235e-007            
3.9986671e-005  1.9909246e-007            
4.0186604e-005  1.9861433e-007            
4.0386538e-005  1.9823704e-007            
4.0586471e-005  1.9799423e-007            
4.0786405e-005  1.9765509e-007            
4.0986338e-005  1.9733389e-007            
4.1186271e-005  1.9712872e-007            
4.1386205e-005  1.9657466e-007            
4.1586138e-005  1.9617708e-007            
4.1786071e-005  1.9571943e-007            
4.1986005e-005  1.9525827e-007            
4.2185938e-005  1.9490372e-007            
4.2385871e-005  1.9443943e-007            
4.2585805e-005  1.9380563e-007            
4.2785738e-005  1.9310287e-007            
4.2985671e-005  1.9258277e-007            
4.3185605e-005  1.9216987e-007            
4.3385538e-005  1.9170018e-007            
4.3585471e-005  1.9100115e-007            
4.3785405e-005  1.9034396e-007            
4.3985338e-005  1.8943667e-007            
4.4185272e-005  1.8848495e-007            
4.4385205e-005  1.8783048e-007            
4.4585138e-005  1.8730193e-007            
4.4785072e-005  1.8672315e-007            
4.4985005e-005  1.8582688e-007            
4.5184938e-005  1.8471802e-007            
4.5384872e-005  1.8371757e-007            
4.5584805e-005  1.8287345e-007            
4.5784738e-005  1.8222305e-007            
4.5984672e-005  1.8126181e-007            
4.6184605e-005  1.8021753e-007            
4.6384538e-005  1.7907524e-007            
4.6584472e-005  1.781811e-007            
4.6784405e-005  1.7729317e-007            
4.6984339e-005  1.7633271e-007            
4.7184272e-005  1.7544275e-007            
4.7384205e-005  1.744652e-007            
4.7584139e-005  1.7340196e-007            
4.7784072e-005  1.7206906e-007            
4.7984005e-005  1.7097062e-007            
4.8183939e-005  1.7012517e-007            
4.8383872e-005  1.6935776e-007            
4.8583805e-005  1.6829243e-007            
4.8783739e-005  1.6675518e-007            
4.8983672e-005  1.6556259e-007            
4.9183605e-005  1.6446995e-007            
4.9383539e-005  1.6369406e-007            
4.9583472e-005  1.6257636e-007            
4.9783406e-005  1.612643e-007            
4.9983339e-005  1.5990071e-007            
5.0183272e-005  1.588156e-007            
5.0383206e-005  1.5756675e-007            
5.0583139e-005  1.5659869e-007            
5.0783072e-005  1.5542793e-007            
5.0983006e-005  1.5429579e-007            
5.1182939e-005  1.5304919e-007            
5.1382872e-005  1.5167354e-007            
5.1582806e-005  1.5066777e-007            
5.1782739e-005  1.4969887e-007            
5.1982672e-005  1.4845822e-007            
5.2182606e-005  1.4697296e-007            
5.2382539e-005  1.4547407e-007            
5.2582472e-005  1.4402461e-007            
5.2782406e-005  1.4288877e-007            
5.2982339e-005  1.4171238e-007            
5.3182273e-005  1.4017128e-007            
5.3382206e-005  1.3848726e-007            
5.3582139e-005  1.3700008e-007            
5.3782073e-005  1.3556881e-007            
5.3982006e-005  1.3429207e-007            
5.4181939e-005  1.3291751e-007            
5.4381873e-005  1.3147962e-007            
5.4581806e-005  1.2993049e-007            
5.4781739e-005  1.2853387e-007            
5.4981673e-005  1.270507e-007            
5.5181606e-005  1.2596321e-007            
5.5381539e-005  1.2485065e-007            
5.5581473e-005  1.2349209e-007            
5.5781406e-005  1.2202022e-007            
5.598134e-005  1.2051759e-007            
5.6181273e-005  1.192895e-007            
5.6381206e-005  1.18458e-007            
5.658114e-005  1.1738212e-007            
5.6781073e-005  1.1606081e-007            
5.6981006e-005  1.1485175e-007            
5.718094e-005  1.1361363e-007            
5.7380873e-005  1.1280085e-007            
5.7580806e-005  1.1192255e-007            
5.778074e-005  1.1088943e-007            
5.7980673e-005  1.1009885e-007            
5.8180606e-005  1.0930942e-007            
5.838054e-005  1.0849174e-007            
5.8580473e-005  1.0766162e-007            
5.8780407e-005  1.0696275e-007            
5.898034e-005  1.0653212e-007            
5.9180273e-005  1.0612391e-007            
5.9380207e-005  1.0553035e-007            
5.958014e-005  1.0480229e-007            
5.9780073e-005  1.0448401e-007            
5.9980007e-005  1.0444408e-007            
6.017994e-005  1.0438988e-007            
6.0379873e-005  1.0397272e-007            
6.0579807e-005  1.0364605e-007            
6.077974e-005  1.0326102e-007            
6.0979673e-005  1.032157e-007            
6.1179607e-005  1.0316868e-007            
6.137954e-005  1.0308265e-007            
6.1579473e-005  1.0303423e-007            
6.1779407e-005  1.0291109e-007            
6.197934e-005  1.0293677e-007            
6.2179274e-005  1.0287271e-007            
6.2379207e-005  1.0281851e-007            
6.257914e-005  1.0301347e-007            
6.2779074e-005  1.0308604e-007            
6.2979007e-005  1.0307882e-007            
6.317894e-005  1.0312696e-007            
6.3378874e-005  1.0318855e-007            
6.3578807e-005  1.0343113e-007            
6.377874e-005  1.0372409e-007            
6.3978674e-005  1.0380178e-007            
6.4178607e-005  1.0400742e-007            
6.437854e-005  1.041695e-007            
6.4578474e-005  1.0419023e-007            
6.4778407e-005  1.0434186e-007            
6.4978341e-005  1.0452799e-007            
6.5178274e-005  1.0473429e-007            
6.5378207e-005  1.0488341e-007            
6.5578141e-005  1.0489825e-007            
6.5778074e-005  1.0478829e-007            
6.5978007e-005  1.0492756e-007            
6.6177941e-005  1.0518539e-007            
6.6377874e-005  1.0550374e-007            
6.6577807e-005  1.0537955e-007            
6.6777741e-005  1.0527746e-007            
6.6977674e-005  1.0526537e-007            
6.7177607e-005  1.0540803e-007            
6.7377541e-005  1.0560806e-007            
6.7577474e-005  1.0566346e-007            
6.7777407e-005  1.057751e-007            
6.7977341e-005  1.0578666e-007            
6.8177274e-005  1.0567086e-007            
6.8377208e-005  1.056002e-007            
6.8577141e-005  1.0564102e-007            
6.8777074e-005  1.0581287e-007            
6.8977008e-005  1.0586173e-007            
6.9176941e-005  1.0551634e-007            
6.9376874e-005  1.0517778e-007            
6.9576808e-005  1.0512824e-007            
6.9776741e-005  1.0521505e-007            
6.9976674e-005  1.0520957e-007            
7.0176608e-005  1.0490229e-007            
7.0376541e-005  1.0449734e-007            
7.0576474e-005  1.0409548e-007            
7.0776408e-005  1.0362731e-007            
7.0976341e-005  1.0344665e-007            
7.1176275e-005  1.0316438e-007            
7.1376208e-005  1.0253611e-007            
7.1576141e-005  1.0171548e-007            
7.1776075e-005  1.0097298e-007            
7.1976008e-005  1.0042612e-007            
7.2175941e-005  1.0016078e-007            
7.2375875e-005  9.9745205e-008            
7.2575808e-005  9.9012977e-008            
7.2775741e-005  9.8216339e-008            
7.2975675e-005  9.7495259e-008            
7.3175608e-005  9.6918516e-008            
7.3375541e-005  9.6371187e-008            
7.3575475e-005  9.5674215e-008            
7.3775408e-005  9.4962423e-008            
7.3975342e-005  9.403689e-008            
7.4175275e-005  9.3050077e-008            
7.4375208e-005  9.1916298e-008            
7.4575142e-005  9.1307039e-008            
7.4775075e-005  9.0809925e-008            
7.4975008e-005  9.0038232e-008            
7.5174942e-005  8.899871e-008            
7.5374875e-005  8.7994477e-008            
7.5574808e-005  8.7324536e-008            
7.5774742e-005  8.7035985e-008            
7.5974675e-005  8.6376207e-008            
7.6174608e-005  8.5629621e-008            
7.6374542e-005  8.4713181e-008            
7.6574475e-005  8.383896e-008            
7.6774408e-005  8.3373643e-008            
7.6974342e-005  8.283348e-008            
7.7174275e-005  8.2226634e-008            
7.7374209e-005  8.1628598e-008            
7.7574142e-005  8.099867e-008            
7.7774075e-005  8.0317421e-008            
7.7974009e-005  7.9731125e-008            
7.8173942e-005  7.9246198e-008            
7.8373875e-005  7.8821669e-008            
7.8573809e-005  7.8340135e-008            
7.8773742e-005  7.759211e-008            
7.8973675e-005  7.6956082e-008            
7.9173609e-005  7.648182e-008            
7.9373542e-005  7.617847e-008            
7.9573475e-005  7.5899762e-008            
7.9773409e-005  7.5295607e-008            
7.9973342e-005  7.4792537e-008            
8.0173276e-005  7.4291474e-008            
8.0373209e-005  7.3850497e-008            
8.0573142e-005  7.3393661e-008            
8.0773076e-005  7.3072069e-008            
8.0973009e-005  7.2881168e-008            
8.1172942e-005  7.2540676e-008            
8.1372876e-005  7.1855223e-008            
8.1572809e-005  7.12032e-008            
8.1772742e-005  7.0681375e-008            
8.1972676e-005  7.0464697e-008            
8.2172609e-005  7.0005534e-008            
8.2372542e-005  6.923725e-008            
8.2572476e-005  6.8722627e-008            
8.2772409e-005  6.8248819e-008            
8.2972343e-005  6.7940047e-008            
8.3172276e-005  6.7498388e-008            
8.3372209e-005  6.6880525e-008            
8.3572143e-005  6.6471404e-008            
8.3772076e-005  6.5934725e-008            
8.3972009e-005  6.5368907e-008            
8.4171943e-005  6.4981885e-008            
8.4371876e-005  6.4461934e-008            
8.4571809e-005  6.4208012e-008            
8.4771743e-005  6.3691323e-008            
8.4971676e-005  6.3071837e-008            
8.5171609e-005  6.2377438e-008            
8.5371543e-005  6.2020128e-008            
8.5571476e-005  6.1670543e-008            
8.5771409e-005  6.1403018e-008            
8.5971343e-005  6.0925158e-008            
8.6171276e-005  6.0349471e-008            
8.637121e-005  5.9876215e-008            
8.6571143e-005  5.9539099e-008            
8.6771076e-005  5.9180374e-008            
8.697101e-005  5.8917349e-008            
8.7170943e-005  5.8501119e-008            
8.7370876e-005  5.8114179e-008            
8.757081e-005  5.7662727e-008            
8.7770743e-005  5.727267e-008            
8.7970676e-005  5.6968553e-008            
8.817061e-005  5.6481569e-008            
8.8370543e-005  5.5951828e-008            
8.8570476e-005  5.5293956e-008            
8.877041e-005  5.4584575e-008            
8.8970343e-005  5.3955492e-008            
8.9170277e-005  5.3090067e-008            
8.937021e-005  5.2256088e-008            
8.9570143e-005  5.1176856e-008            
8.9770077e-005  5.0022512e-008            
8.997001e-005  4.8917169e-008            
9.0169943e-005  4.781287e-008            
9.0369877e-005  4.6938964e-008            
9.056981e-005  4.5900027e-008            
9.0769743e-005  4.4653163e-008            
9.0969677e-005  4.3353573e-008            
9.116961e-005  4.208141e-008            
9.1369543e-005  4.1002078e-008            
9.1569477e-005  4.0083612e-008            
9.176941e-005  3.9136683e-008            
9.1969344e-005  3.8175054e-008            
9.2169277e-005  3.691971e-008            
9.236921e-005  3.5877246e-008            
9.2569144e-005  3.5112586e-008            
9.2769077e-005  3.4327245e-008            
