Surface Profile             
x       y           
[m]     [m]         
0  2.616983e-009            
1.9993336e-007  3.2098573e-009            
3.9986671e-007  3.688358e-009            
5.9980007e-007  4.019764e-009            
7.9973342e-007  4.4442187e-009            
9.9966678e-007  4.8204082e-009            
1.1996001e-006  5.3225794e-009            
1.3995335e-006  5.4357781e-009            
1.5994668e-006  5.8306546e-009            
1.7994002e-006  6.2552114e-009            
1.9993336e-006  6.6518775e-009            
2.1992669e-006  7.3407273e-009            
2.3992003e-006  7.9171608e-009            
2.5991336e-006  8.6896446e-009            
2.799067e-006  9.5091676e-009            
2.9990003e-006  1.0106963e-008            
3.1989337e-006  1.0706408e-008            
3.398867e-006  1.1590746e-008            
3.5988004e-006  1.2616131e-008            
3.7987338e-006  1.3763148e-008            
3.9986671e-006  1.4638599e-008            
4.1986005e-006  1.5568494e-008            
4.3985338e-006  1.6705766e-008            
4.5984672e-006  1.7833617e-008            
4.7984005e-006  1.900774e-008            
4.9983339e-006  2.0204673e-008            
5.1982672e-006  2.135973e-008            
5.3982006e-006  2.2532291e-008            
5.598134e-006  2.3665276e-008            
5.7980673e-006  2.4896037e-008            
5.9980007e-006  2.6222528e-008            
6.197934e-006  2.7636332e-008            
6.3978674e-006  2.8899375e-008            
6.5978007e-006  3.0166934e-008            
6.7977341e-006  3.1401682e-008            
6.9976674e-006  3.2902356e-008            
7.1976008e-006  3.428738e-008            
7.3975342e-006  3.5740964e-008            
7.5974675e-006  3.7001294e-008            
7.7974009e-006  3.8276065e-008            
7.9973342e-006  3.9778734e-008            
8.1972676e-006  4.1242818e-008            
8.3972009e-006  4.2945786e-008            
8.5971343e-006  4.4606126e-008            
8.7970676e-006  4.6335338e-008            
8.997001e-006  4.7813829e-008            
9.1969344e-006  4.9293836e-008            
9.3968677e-006  5.0946579e-008            
9.5968011e-006  5.2924212e-008            
9.7967344e-006  5.4766857e-008            
9.9966678e-006  5.6484212e-008            
1.0196601e-005  5.8331241e-008            
1.0396534e-005  6.0224644e-008            
1.0596468e-005  6.2285319e-008            
1.0796401e-005  6.4355473e-008            
1.0996335e-005  6.6125348e-008            
1.1196268e-005  6.8052391e-008            
1.1396201e-005  6.9933983e-008            
1.1596135e-005  7.1986781e-008            
1.1796068e-005  7.3922398e-008            
1.1996001e-005  7.5880959e-008            
1.2195935e-005  7.7940559e-008            
1.2395868e-005  8.00361e-008            
1.2595801e-005  8.1995015e-008            
1.2795735e-005  8.4142446e-008            
1.2995668e-005  8.6098698e-008            
1.3195601e-005  8.8417892e-008            
1.3395535e-005  9.0565163e-008            
1.3595468e-005  9.2675893e-008            
1.3795402e-005  9.4727657e-008            
1.3995335e-005  9.674573e-008            
1.4195268e-005  9.8925661e-008            
1.4395202e-005  1.0103812e-007            
1.4595135e-005  1.0324927e-007            
1.4795068e-005  1.0570609e-007            
1.4995002e-005  1.0793415e-007            
1.5194935e-005  1.1020592e-007            
1.5394868e-005  1.1238182e-007            
1.5594802e-005  1.1449409e-007            
1.5794735e-005  1.1663369e-007            
1.5994668e-005  1.1879409e-007            
1.6194602e-005  1.2103746e-007            
1.6394535e-005  1.2319941e-007            
1.6594469e-005  1.2527268e-007            
1.6794402e-005  1.2735727e-007            
1.6994335e-005  1.2948736e-007            
1.7194269e-005  1.3169631e-007            
1.7394202e-005  1.3374045e-007            
1.7594135e-005  1.3583157e-007            
1.7794069e-005  1.3779634e-007            
1.7994002e-005  1.3998767e-007            
1.8193935e-005  1.422042e-007            
1.8393869e-005  1.4448269e-007            
1.8593802e-005  1.4678782e-007            
1.8793735e-005  1.487474e-007            
1.8993669e-005  1.5067458e-007            
1.9193602e-005  1.5298793e-007            
1.9393535e-005  1.553717e-007            
1.9593469e-005  1.5789986e-007            
1.9793402e-005  1.5992907e-007            
1.9993336e-005  1.6219509e-007            
2.0193269e-005  1.6446921e-007            
2.0393202e-005  1.6659724e-007            
2.0593136e-005  1.6896173e-007            
2.0793069e-005  1.7142125e-007            
2.0993002e-005  1.7383797e-007            
2.1192936e-005  1.7592905e-007            
2.1392869e-005  1.777071e-007            
2.1592802e-005  1.7990432e-007            
2.1792736e-005  1.8222352e-007            
2.1992669e-005  1.8471359e-007            
2.2192602e-005  1.8709746e-007            
2.2392536e-005  1.8928107e-007            
2.2592469e-005  1.9151608e-007            
2.2792403e-005  1.9398778e-007            
2.2992336e-005  1.9622742e-007            
2.3192269e-005  1.9873132e-007            
2.3392203e-005  2.0114749e-007            
2.3592136e-005  2.0360819e-007            
2.3792069e-005  2.0611062e-007            
2.3992003e-005  2.0854688e-007            
2.4191936e-005  2.1113994e-007            
2.4391869e-005  2.1388833e-007            
2.4591803e-005  2.166436e-007            
2.4791736e-005  2.1901201e-007            
2.4991669e-005  2.2139677e-007            
2.5191603e-005  2.2369911e-007            
2.5391536e-005  2.2630857e-007            
2.5591469e-005  2.2856943e-007            
2.5791403e-005  2.3092517e-007            
2.5991336e-005  2.3335082e-007            
2.619127e-005  2.3571013e-007            
2.6391203e-005  2.3803384e-007            
2.6591136e-005  2.4013336e-007            
2.679107e-005  2.4237457e-007            
2.6991003e-005  2.4469196e-007            
2.7190936e-005  2.4690129e-007            
2.739087e-005  2.4910186e-007            
2.7590803e-005  2.5115705e-007            
2.7790736e-005  2.53642e-007            
2.799067e-005  2.5630061e-007            
2.8190603e-005  2.5885445e-007            
2.8390536e-005  2.6106483e-007            
2.859047e-005  2.6327288e-007            
2.8790403e-005  2.6558775e-007            
2.8990337e-005  2.6818675e-007            
2.919027e-005  2.7058384e-007            
2.9390203e-005  2.7274079e-007            
2.9590137e-005  2.7501917e-007            
2.979007e-005  2.7720398e-007            
2.9990003e-005  2.7943752e-007            
3.0189937e-005  2.813271e-007            
3.038987e-005  2.8334133e-007            
3.0589803e-005  2.855198e-007            
3.0789737e-005  2.875844e-007            
3.098967e-005  2.8941836e-007            
3.1189603e-005  2.9117834e-007            
3.1389537e-005  2.9302647e-007            
3.158947e-005  2.9492468e-007            
3.1789404e-005  2.9686778e-007            
3.1989337e-005  2.985296e-007            
3.218927e-005  3.004252e-007            
3.2389204e-005  3.0235216e-007            
3.2589137e-005  3.0425392e-007            
3.278907e-005  3.0583814e-007            
3.2989004e-005  3.0759011e-007            
3.3188937e-005  3.0949659e-007            
3.338887e-005  3.1133887e-007            
3.3588804e-005  3.1318374e-007            
3.3788737e-005  3.1478642e-007            
3.398867e-005  3.1659312e-007            
3.4188604e-005  3.1858251e-007            
3.4388537e-005  3.2052096e-007            
3.458847e-005  3.2224204e-007            
3.4788404e-005  3.2381782e-007            
3.4988337e-005  3.254583e-007            
3.5188271e-005  3.271079e-007            
3.5388204e-005  3.2868528e-007            
3.5588137e-005  3.3020893e-007            
3.5788071e-005  3.3195484e-007            
3.5988004e-005  3.3355878e-007            
3.6187937e-005  3.3493706e-007            
3.6387871e-005  3.3632128e-007            
3.6587804e-005  3.3778256e-007            
3.6787737e-005  3.3945873e-007            
3.6987671e-005  3.4112225e-007            
3.7187604e-005  3.4235787e-007            
3.7387537e-005  3.436198e-007            
3.7587471e-005  3.4488216e-007            
3.7787404e-005  3.4641145e-007            
3.7987338e-005  3.4798291e-007            
3.8187271e-005  3.4930294e-007            
3.8387204e-005  3.5041322e-007            
3.8587138e-005  3.5188177e-007            
3.8787071e-005  3.5326823e-007            
3.8987004e-005  3.5477677e-007            
3.9186938e-005  3.5615514e-007            
3.9386871e-005  3.5749796e-007            
3.9586804e-005  3.5874538e-007            
3.9786738e-005  3.5997309e-007            
3.9986671e-005  3.611211e-007            
4.0186604e-005  3.6241621e-007            
4.0386538e-005  3.6361128e-007            
4.0586471e-005  3.6490809e-007            
4.0786405e-005  3.6598576e-007            
4.0986338e-005  3.6710834e-007            
4.1186271e-005  3.684316e-007            
4.1386205e-005  3.6970979e-007            
4.1586138e-005  3.7101046e-007            
4.1786071e-005  3.7216194e-007            
4.1986005e-005  3.7339113e-007            
4.2185938e-005  3.7471159e-007            
4.2385871e-005  3.7594678e-007            
4.2585805e-005  3.7748113e-007            
4.2785738e-005  3.7888423e-007            
4.2985671e-005  3.8026159e-007            
4.3185605e-005  3.8145895e-007            
4.3385538e-005  3.8261641e-007            
4.3585471e-005  3.8377147e-007            
4.3785405e-005  3.8496278e-007            
4.3985338e-005  3.8585295e-007            
4.4185272e-005  3.8668576e-007            
4.4385205e-005  3.8740055e-007            
4.4585138e-005  3.8828527e-007            
4.4785072e-005  3.8926386e-007            
4.4985005e-005  3.9029412e-007            
4.5184938e-005  3.9105902e-007            
4.5384872e-005  3.9175694e-007            
4.5584805e-005  3.9248159e-007            
4.5784738e-005  3.9323868e-007            
4.5984672e-005  3.9388824e-007            
4.6184605e-005  3.9459217e-007            
4.6384538e-005  3.9532354e-007            
4.6584472e-005  3.9612108e-007            
4.6784405e-005  3.9672577e-007            
4.6984339e-005  3.9722189e-007            
4.7184272e-005  3.9785001e-007            
4.7384205e-005  3.9846956e-007            
4.7584139e-005  3.9924499e-007            
4.7784072e-005  3.9980952e-007            
4.7984005e-005  4.0048813e-007            
4.8183939e-005  4.0100747e-007            
4.8383872e-005  4.016459e-007            
4.8583805e-005  4.0221175e-007            
4.8783739e-005  4.0273782e-007            
4.8983672e-005  4.0338195e-007            
4.9183605e-005  4.0381316e-007            
4.9383539e-005  4.0430218e-007            
4.9583472e-005  4.046526e-007            
4.9783406e-005  4.0501809e-007            
4.9983339e-005  4.0549748e-007            
5.0183272e-005  4.0584022e-007            
5.0383206e-005  4.0591075e-007            
5.0583139e-005  4.0606252e-007            
5.0783072e-005  4.0622784e-007            
5.0983006e-005  4.0648372e-007            
5.1182939e-005  4.0674038e-007            
5.1382872e-005  4.0675794e-007            
5.1582806e-005  4.0691831e-007            
5.1782739e-005  4.0702885e-007            
5.1982672e-005  4.0718385e-007            
5.2182606e-005  4.0713553e-007            
5.2382539e-005  4.0718331e-007            
5.2582472e-005  4.0760703e-007            
5.2782406e-005  4.0784124e-007            
5.2982339e-005  4.0796744e-007            
5.3182273e-005  4.0793831e-007            
5.3382206e-005  4.0807088e-007            
5.3582139e-005  4.0841632e-007            
5.3782073e-005  4.0857587e-007            
5.3982006e-005  4.0852468e-007            
5.4181939e-005  4.0866864e-007            
5.4381873e-005  4.0884521e-007            
5.4581806e-005  4.0900898e-007            
5.4781739e-005  4.0907017e-007            
5.4981673e-005  4.091429e-007            
5.5181606e-005  4.0920496e-007            
5.5381539e-005  4.0926352e-007            
5.5581473e-005  4.0919377e-007            
5.5781406e-005  4.0909484e-007            
5.598134e-005  4.0917515e-007            
5.6181273e-005  4.0925683e-007            
5.6381206e-005  4.0931447e-007            
5.658114e-005  4.0896965e-007            
5.6781073e-005  4.0884757e-007            
5.6981006e-005  4.0889613e-007            
5.718094e-005  4.09085e-007            
5.7380873e-005  4.0931766e-007            
5.7580806e-005  4.0928315e-007            
5.778074e-005  4.0913756e-007            
5.7980673e-005  4.092597e-007            
5.8180606e-005  4.0911843e-007            
5.838054e-005  4.0928572e-007            
5.8580473e-005  4.0918931e-007            
5.8780407e-005  4.0931727e-007            
5.898034e-005  4.0921801e-007            
5.9180273e-005  4.0909763e-007            
5.9380207e-005  4.089512e-007            
5.958014e-005  4.091276e-007            
5.9780073e-005  4.0938245e-007            
5.9980007e-005  4.0928747e-007            
6.017994e-005  4.0889367e-007            
6.0379873e-005  4.084943e-007            
6.0579807e-005  4.0849346e-007            
6.077974e-005  4.0860686e-007            
6.0979673e-005  4.0885373e-007            
6.1179607e-005  4.0856038e-007            
6.137954e-005  4.0833955e-007            
6.1579473e-005  4.0815796e-007            
6.1779407e-005  4.0778301e-007            
6.197934e-005  4.0767058e-007            
6.2179274e-005  4.0761405e-007            
6.2379207e-005  4.0736795e-007            
6.257914e-005  4.0696019e-007            
6.2779074e-005  4.0648454e-007            
6.2979007e-005  4.0603515e-007            
6.317894e-005  4.0592154e-007            
6.3378874e-005  4.0589728e-007            
6.3578807e-005  4.0556038e-007            
6.377874e-005  4.0499502e-007            
6.3978674e-005  4.0436954e-007            
6.4178607e-005  4.042932e-007            
6.437854e-005  4.040696e-007            
6.4578474e-005  4.03982e-007            
6.4778407e-005  4.0347922e-007            
6.4978341e-005  4.0291242e-007            
6.5178274e-005  4.0250049e-007            
6.5378207e-005  4.0201736e-007            
6.5578141e-005  4.0186487e-007            
6.5778074e-005  4.0175168e-007            
6.5978007e-005  4.0141271e-007            
6.6177941e-005  4.0082587e-007            
6.6377874e-005  4.0029145e-007            
6.6577807e-005  3.9982019e-007            
6.6777741e-005  3.9958053e-007            
6.6977674e-005  3.9922585e-007            
6.7177607e-005  3.9857855e-007            
6.7377541e-005  3.9793877e-007            
6.7577474e-005  3.9742042e-007            
6.7777407e-005  3.970704e-007            
6.7977341e-005  3.9659566e-007            
6.8177274e-005  3.9613715e-007            
6.8377208e-005  3.9545686e-007            
6.8577141e-005  3.9463395e-007            
6.8777074e-005  3.937951e-007            
6.8977008e-005  3.9309635e-007            
6.9176941e-005  3.9245741e-007            
6.9376874e-005  3.9188741e-007            
6.9576808e-005  3.9112496e-007            
6.9776741e-005  3.9016957e-007            
6.9976674e-005  3.8946185e-007            
7.0176608e-005  3.8856723e-007            
7.0376541e-005  3.8784813e-007            
7.0576474e-005  3.8726023e-007            
7.0776408e-005  3.8631003e-007            
7.0976341e-005  3.855585e-007            
7.1176275e-005  3.8456444e-007            
7.1376208e-005  3.8368972e-007            
7.1576141e-005  3.8313705e-007            
7.1776075e-005  3.8253698e-007            
7.1976008e-005  3.8193507e-007            
7.2175941e-005  3.8105491e-007            
7.2375875e-005  3.8021302e-007            
7.2575808e-005  3.7947943e-007            
7.2775741e-005  3.7882777e-007            
7.2975675e-005  3.7818165e-007            
7.3175608e-005  3.7750997e-007            
7.3375541e-005  3.7650815e-007            
7.3575475e-005  3.7577272e-007            
7.3775408e-005  3.748529e-007            
7.3975342e-005  3.7406401e-007            
7.4175275e-005  3.7343601e-007            
7.4375208e-005  3.7280477e-007            
7.4575142e-005  3.7193445e-007            
7.4775075e-005  3.7094762e-007            
7.4975008e-005  3.7007413e-007            
7.5174942e-005  3.6937524e-007            
7.5374875e-005  3.688198e-007            
7.5574808e-005  3.6803893e-007            
7.5774742e-005  3.6699477e-007            
7.5974675e-005  3.6587311e-007            
7.6174608e-005  3.6497976e-007            
7.6374542e-005  3.6435615e-007            
7.6574475e-005  3.6371674e-007            
7.6774408e-005  3.6307099e-007            
7.6974342e-005  3.6202307e-007            
7.7174275e-005  3.6092499e-007            
7.7374209e-005  3.5997317e-007            
7.7574142e-005  3.5902803e-007            
7.7774075e-005  3.5848551e-007            
7.7974009e-005  3.5754521e-007            
7.8173942e-005  3.5652242e-007            
7.8373875e-005  3.553856e-007            
7.8573809e-005  3.5424396e-007            
7.8773742e-005  3.5309217e-007            
7.8973675e-005  3.5233983e-007            
7.9173609e-005  3.513939e-007            
7.9373542e-005  3.5054959e-007            
7.9573475e-005  3.4934074e-007            
7.9773409e-005  3.4812127e-007            
7.9973342e-005  3.4704473e-007            
8.0173276e-005  3.4600799e-007            
8.0373209e-005  3.4523256e-007            
8.0573142e-005  3.441227e-007            
8.0773076e-005  3.427215e-007            
8.0973009e-005  3.4148473e-007            
8.1172942e-005  3.4025386e-007            
8.1372876e-005  3.3953666e-007            
8.1572809e-005  3.3868406e-007            
8.1772742e-005  3.3759444e-007            
8.1972676e-005  3.3613033e-007            
8.2172609e-005  3.3473612e-007            
8.2372542e-005  3.3365701e-007            
8.2572476e-005  3.3292435e-007            
8.2772409e-005  3.3198242e-007            
8.2972343e-005  3.309334e-007            
8.3172276e-005  3.2963976e-007            
8.3372209e-005  3.2838003e-007            
8.3572143e-005  3.2723442e-007            
8.3772076e-005  3.2624838e-007            
8.3972009e-005  3.2512297e-007            
8.4171943e-005  3.2391812e-007            
8.4371876e-005  3.2251376e-007            
8.4571809e-005  3.2131751e-007            
8.4771743e-005  3.1998507e-007            
8.4971676e-005  3.1897981e-007            
8.5171609e-005  3.1821901e-007            
8.5371543e-005  3.1721947e-007            
8.5571476e-005  3.1574039e-007            
8.5771409e-005  3.1432596e-007            
8.5971343e-005  3.1309334e-007            
8.6171276e-005  3.1232271e-007            
8.637121e-005  3.1148106e-007            
8.6571143e-005  3.1023786e-007            
8.6771076e-005  3.0882136e-007            
8.697101e-005  3.0728603e-007            
8.7170943e-005  3.0605385e-007            
8.7370876e-005  3.0513242e-007            
8.757081e-005  3.039348e-007            
8.7770743e-005  3.0260823e-007            
8.7970676e-005  3.0105633e-007            
8.817061e-005  2.9957991e-007            
8.8370543e-005  2.9833922e-007            
8.8570476e-005  2.9708653e-007            
8.877041e-005  2.9594088e-007            
8.8970343e-005  2.9456197e-007            
8.9170277e-005  2.9295086e-007            
8.937021e-005  2.9140225e-007            
8.9570143e-005  2.8981916e-007            
8.9770077e-005  2.8842425e-007            
8.997001e-005  2.8712294e-007            
9.0169943e-005  2.8580595e-007            
9.0369877e-005  2.8411438e-007            
9.056981e-005  2.8244758e-007            
9.0769743e-005  2.8083355e-007            
9.0969677e-005  2.795107e-007            
9.116961e-005  2.7814053e-007            
9.1369543e-005  2.7667026e-007            
9.1569477e-005  2.751232e-007            
9.176941e-005  2.7345979e-007            
9.1969344e-005  2.7199204e-007            
9.2169277e-005  2.7064987e-007            
9.236921e-005  2.6921462e-007            
9.2569144e-005  2.6772308e-007            
9.2769077e-005  2.662903e-007            
9.296901e-005  2.6471115e-007            
