Surface Profile             
x       y           
[m]     [m]         
0  -6.5207705e-010            
1.9993336e-007  -1.4042214e-009            
3.9986671e-007  -1.9813803e-009            
5.9980007e-007  -2.7242656e-009            
7.9973342e-007  -3.1669692e-009            
9.9966678e-007  -3.6518113e-009            
1.1996001e-006  -4.0255968e-009            
1.3995335e-006  -4.4694184e-009            
1.5994668e-006  -4.8680145e-009            
1.7994002e-006  -5.3801912e-009            
1.9993336e-006  -6.0332079e-009            
2.1992669e-006  -6.7719527e-009            
2.3992003e-006  -7.2871294e-009            
2.5991336e-006  -7.5939275e-009            
2.799067e-006  -7.9395317e-009            
2.9990003e-006  -8.5238301e-009            
3.1989337e-006  -9.3191819e-009            
3.398867e-006  -1.0036676e-008            
3.5988004e-006  -1.0355195e-008            
3.7987338e-006  -1.0869277e-008            
3.9986671e-006  -1.1405894e-008            
4.1986005e-006  -1.211362e-008            
4.3985338e-006  -1.2862548e-008            
4.5984672e-006  -1.3521715e-008            
4.7984005e-006  -1.4082717e-008            
4.9983339e-006  -1.4659368e-008            
5.1982672e-006  -1.5191478e-008            
5.3982006e-006  -1.5831972e-008            
5.598134e-006  -1.668297e-008            
5.7980673e-006  -1.7550388e-008            
5.9980007e-006  -1.8408349e-008            
6.197934e-006  -1.8967287e-008            
6.3978674e-006  -1.9452041e-008            
6.5978007e-006  -2.0160751e-008            
6.7977341e-006  -2.0896448e-008            
6.9976674e-006  -2.1853149e-008            
7.1976008e-006  -2.2621171e-008            
7.3975342e-006  -2.3144529e-008            
7.5974675e-006  -2.3901169e-008            
7.7974009e-006  -2.4640538e-008            
7.9973342e-006  -2.5440691e-008            
8.1972676e-006  -2.6184583e-008            
8.3972009e-006  -2.6942374e-008            
8.5971343e-006  -2.7725167e-008            
8.7970676e-006  -2.8297987e-008            
8.997001e-006  -2.8750554e-008            
9.1969344e-006  -2.9409961e-008            
9.3968677e-006  -3.0048477e-008            
9.5968011e-006  -3.0636857e-008            
9.7967344e-006  -3.1095883e-008            
9.9966678e-006  -3.1400342e-008            
1.0196601e-005  -3.1928995e-008            
1.0396534e-005  -3.2342866e-008            
1.0596468e-005  -3.2863985e-008            
1.0796401e-005  -3.325956e-008            
1.0996335e-005  -3.3512017e-008            
1.1196268e-005  -3.3693473e-008            
1.1396201e-005  -3.3875103e-008            
1.1596135e-005  -3.3948251e-008            
1.1796068e-005  -3.4148791e-008            
1.1996001e-005  -3.4350656e-008            
1.2195935e-005  -3.4550735e-008            
1.2395868e-005  -3.4502374e-008            
1.2595801e-005  -3.4348434e-008            
1.2795735e-005  -3.4534209e-008            
1.2995668e-005  -3.4776878e-008            
1.3195601e-005  -3.4944057e-008            
1.3395535e-005  -3.508526e-008            
1.3595468e-005  -3.5054218e-008            
1.3795402e-005  -3.5237925e-008            
1.3995335e-005  -3.565651e-008            
1.4195268e-005  -3.6068767e-008            
1.4395202e-005  -3.6298404e-008            
1.4595135e-005  -3.6557115e-008            
1.4795068e-005  -3.6885337e-008            
1.4995002e-005  -3.7270531e-008            
1.5194935e-005  -3.7533688e-008            
1.5394868e-005  -3.7678379e-008            
1.5594802e-005  -3.8127184e-008            
1.5794735e-005  -3.8375654e-008            
1.5994668e-005  -3.8625261e-008            
1.6194602e-005  -3.8857582e-008            
1.6394535e-005  -3.9348193e-008            
1.6594469e-005  -4.0014808e-008            
1.6794402e-005  -4.0503523e-008            
1.6994335e-005  -4.0810096e-008            
1.7194269e-005  -4.10909e-008            
1.7394202e-005  -4.1426273e-008            
1.7594135e-005  -4.2223965e-008            
1.7794069e-005  -4.2978758e-008            
1.7994002e-005  -4.3684348e-008            
1.8193935e-005  -4.4207325e-008            
1.8393869e-005  -4.463428e-008            
1.8593802e-005  -4.5390243e-008            
1.8793735e-005  -4.6149927e-008            
1.8993669e-005  -4.7002424e-008            
1.9193602e-005  -4.7721795e-008            
1.9393535e-005  -4.8243215e-008            
1.9593469e-005  -4.869911e-008            
1.9793402e-005  -4.9298212e-008            
1.9993336e-005  -5.0088453e-008            
2.0193269e-005  -5.1002429e-008            
2.0393202e-005  -5.1876327e-008            
2.0593136e-005  -5.2396863e-008            
2.0793069e-005  -5.2858014e-008            
2.0993002e-005  -5.3507069e-008            
2.1192936e-005  -5.4378929e-008            
2.1392869e-005  -5.5156759e-008            
2.1592802e-005  -5.583421e-008            
2.1792736e-005  -5.6442819e-008            
2.1992669e-005  -5.6971015e-008            
2.2192602e-005  -5.7574816e-008            
2.2392536e-005  -5.8291532e-008            
2.2592469e-005  -5.896775e-008            
2.2792403e-005  -5.9675787e-008            
2.2992336e-005  -6.0174844e-008            
2.3192269e-005  -6.0558627e-008            
2.3392203e-005  -6.1157325e-008            
2.3592136e-005  -6.18156e-008            
2.3792069e-005  -6.2431565e-008            
2.3992003e-005  -6.2959594e-008            
2.4191936e-005  -6.318513e-008            
2.4391869e-005  -6.3594242e-008            
2.4591803e-005  -6.3877645e-008            
2.4791736e-005  -6.4415167e-008            
2.4991669e-005  -6.4961145e-008            
2.5191603e-005  -6.5273273e-008            
2.5391536e-005  -6.5650821e-008            
2.5591469e-005  -6.5778432e-008            
2.5791403e-005  -6.6253174e-008            
2.5991336e-005  -6.690117e-008            
2.619127e-005  -6.7268218e-008            
2.6391203e-005  -6.7734619e-008            
2.6591136e-005  -6.8068567e-008            
2.679107e-005  -6.8409531e-008            
2.6991003e-005  -6.8803805e-008            
2.7190936e-005  -6.934684e-008            
2.739087e-005  -6.9792971e-008            
2.7590803e-005  -7.0222787e-008            
2.7790736e-005  -7.0458636e-008            
2.799067e-005  -7.0730788e-008            
2.8190603e-005  -7.134064e-008            
2.8390536e-005  -7.1707545e-008            
2.859047e-005  -7.2012896e-008            
2.8790403e-005  -7.2293409e-008            
2.8990337e-005  -7.2470094e-008            
2.919027e-005  -7.2568933e-008            
2.9390203e-005  -7.2957594e-008            
2.9590137e-005  -7.3281124e-008            
2.979007e-005  -7.3742137e-008            
2.9990003e-005  -7.3995566e-008            
3.0189937e-005  -7.4116274e-008            
3.038987e-005  -7.4154336e-008            
3.0589803e-005  -7.439358e-008            
3.0789737e-005  -7.4704523e-008            
3.098967e-005  -7.4862039e-008            
3.1189603e-005  -7.5125974e-008            
3.1389537e-005  -7.5217076e-008            
3.158947e-005  -7.5471434e-008            
3.1789404e-005  -7.5665701e-008            
3.1989337e-005  -7.5809168e-008            
3.218927e-005  -7.6219328e-008            
3.2389204e-005  -7.6512769e-008            
3.2589137e-005  -7.6768849e-008            
3.278907e-005  -7.6925754e-008            
3.2989004e-005  -7.6969034e-008            
3.3188937e-005  -7.7310772e-008            
3.338887e-005  -7.7788945e-008            
3.3588804e-005  -7.8199984e-008            
3.3788737e-005  -7.8484123e-008            
3.398867e-005  -7.8881927e-008            
3.4188604e-005  -7.9295493e-008            
3.4388537e-005  -7.979214e-008            
3.458847e-005  -8.0102454e-008            
3.4788404e-005  -8.0452672e-008            
3.4988337e-005  -8.103243e-008            
3.5188271e-005  -8.1388821e-008            
3.5388204e-005  -8.1647664e-008            
3.5588137e-005  -8.198165e-008            
3.5788071e-005  -8.2639548e-008            
3.5988004e-005  -8.333249e-008            
3.6187937e-005  -8.3831568e-008            
3.6387871e-005  -8.4061613e-008            
3.6587804e-005  -8.4493331e-008            
3.6787737e-005  -8.5126326e-008            
3.6987671e-005  -8.574168e-008            
3.7187604e-005  -8.6290397e-008            
3.7387537e-005  -8.6715599e-008            
3.7587471e-005  -8.7383725e-008            
3.7787404e-005  -8.7854538e-008            
3.7987338e-005  -8.8446523e-008            
3.8187271e-005  -8.8890086e-008            
3.8387204e-005  -8.9630677e-008            
3.8587138e-005  -9.0298005e-008            
3.8787071e-005  -9.0778753e-008            
3.8987004e-005  -9.1232031e-008            
3.9186938e-005  -9.1667021e-008            
3.9386871e-005  -9.2469844e-008            
3.9586804e-005  -9.3271076e-008            
3.9786738e-005  -9.3860619e-008            
3.9986671e-005  -9.4215736e-008            
4.0186604e-005  -9.4800033e-008            
4.0386538e-005  -9.5359342e-008            
4.0586471e-005  -9.6101324e-008            
4.0786405e-005  -9.6855904e-008            
4.0986338e-005  -9.7582761e-008            
4.1186271e-005  -9.8130692e-008            
4.1386205e-005  -9.8720994e-008            
4.1586138e-005  -9.9335526e-008            
4.1786071e-005  -9.9924912e-008            
4.1986005e-005  -1.0076506e-007            
4.2185938e-005  -1.0170539e-007            
4.2385871e-005  -1.0245712e-007            
4.2585805e-005  -1.030326e-007            
4.2785738e-005  -1.0388543e-007            
4.2985671e-005  -1.0489837e-007            
4.3185605e-005  -1.0595514e-007            
4.3385538e-005  -1.0687034e-007            
4.3585471e-005  -1.0742079e-007            
4.3785405e-005  -1.0825438e-007            
4.3985338e-005  -1.0931131e-007            
4.4185272e-005  -1.1042103e-007            
4.4385205e-005  -1.1165409e-007            
4.4585138e-005  -1.1252073e-007            
4.4785072e-005  -1.1355698e-007            
4.4985005e-005  -1.1484665e-007            
4.5184938e-005  -1.1593179e-007            
4.5384872e-005  -1.1733456e-007            
4.5584805e-005  -1.1871151e-007            
4.5784738e-005  -1.2012443e-007            
4.5984672e-005  -1.2131181e-007            
4.6184605e-005  -1.2237932e-007            
4.6384538e-005  -1.2356158e-007            
4.6584472e-005  -1.2480524e-007            
4.6784405e-005  -1.2627229e-007            
4.6984339e-005  -1.2744795e-007            
4.7184272e-005  -1.2831396e-007            
4.7384205e-005  -1.2944259e-007            
4.7584139e-005  -1.3078121e-007            
4.7784072e-005  -1.3199027e-007            
4.7984005e-005  -1.332239e-007            
4.8183939e-005  -1.3412592e-007            
4.8383872e-005  -1.3507424e-007            
4.8583805e-005  -1.3616379e-007            
4.8783739e-005  -1.3717968e-007            
4.8983672e-005  -1.3822294e-007            
4.9183605e-005  -1.3935857e-007            
4.9383539e-005  -1.4042672e-007            
4.9583472e-005  -1.4133559e-007            
4.9783406e-005  -1.4225556e-007            
4.9983339e-005  -1.4336809e-007            
5.0183272e-005  -1.4473973e-007            
5.0383206e-005  -1.458924e-007            
5.0583139e-005  -1.4706468e-007            
5.0783072e-005  -1.4811333e-007            
5.0983006e-005  -1.4935263e-007            
5.1182939e-005  -1.5062521e-007            
5.1382872e-005  -1.5179068e-007            
5.1582806e-005  -1.5292018e-007            
5.1782739e-005  -1.541322e-007            
5.1982672e-005  -1.553429e-007            
5.2182606e-005  -1.5641162e-007            
5.2382539e-005  -1.5748322e-007            
5.2582472e-005  -1.5848749e-007            
5.2782406e-005  -1.5969949e-007            
5.2982339e-005  -1.6084773e-007            
5.3182273e-005  -1.6168876e-007            
5.3382206e-005  -1.6270894e-007            
5.3582139e-005  -1.6368163e-007            
5.3782073e-005  -1.6494809e-007            
5.3982006e-005  -1.658938e-007            
5.4181939e-005  -1.6691378e-007            
5.4381873e-005  -1.6797541e-007            
5.4581806e-005  -1.6919233e-007            
5.4781739e-005  -1.7019545e-007            
5.4981673e-005  -1.7116619e-007            
5.5181606e-005  -1.7221908e-007            
5.5381539e-005  -1.7338912e-007            
5.5581473e-005  -1.7443097e-007            
5.5781406e-005  -1.7530663e-007            
5.598134e-005  -1.7627204e-007            
5.6181273e-005  -1.7746916e-007            
5.6381206e-005  -1.786019e-007            
5.658114e-005  -1.7957029e-007            
5.6781073e-005  -1.8047149e-007            
5.6981006e-005  -1.8144346e-007            
5.718094e-005  -1.8231167e-007            
5.7380873e-005  -1.8323231e-007            
5.7580806e-005  -1.8391956e-007            
5.778074e-005  -1.8489911e-007            
5.7980673e-005  -1.8572344e-007            
5.8180606e-005  -1.8647697e-007            
5.838054e-005  -1.870623e-007            
5.8580473e-005  -1.8782439e-007            
5.8780407e-005  -1.8884087e-007            
5.898034e-005  -1.8983742e-007            
5.9180273e-005  -1.9046048e-007            
5.9380207e-005  -1.9109234e-007            
5.958014e-005  -1.9196641e-007            
5.9780073e-005  -1.9271263e-007            
5.9980007e-005  -1.9358672e-007            
6.017994e-005  -1.9427388e-007            
6.0379873e-005  -1.9483128e-007            
6.0579807e-005  -1.9561653e-007            
6.077974e-005  -1.9641507e-007            
6.0979673e-005  -1.9707736e-007            
6.1179607e-005  -1.9808276e-007            
6.137954e-005  -1.9904106e-007            
6.1579473e-005  -1.9982485e-007            
6.1779407e-005  -2.0062853e-007            
6.197934e-005  -2.0112057e-007            
6.2179274e-005  -2.0208945e-007            
6.2379207e-005  -2.0321065e-007            
6.257914e-005  -2.0409581e-007            
6.2779074e-005  -2.0488832e-007            
6.2979007e-005  -2.0544396e-007            
6.317894e-005  -2.0635849e-007            
6.3378874e-005  -2.0742548e-007            
6.3578807e-005  -2.0834133e-007            
6.377874e-005  -2.0907941e-007            
6.3978674e-005  -2.0986121e-007            
6.4178607e-005  -2.1067842e-007            
6.437854e-005  -2.1144978e-007            
6.4578474e-005  -2.1232527e-007            
6.4778407e-005  -2.1330216e-007            
6.4978341e-005  -2.1446931e-007            
6.5178274e-005  -2.1536725e-007            
6.5378207e-005  -2.1601416e-007            
6.5578141e-005  -2.1674257e-007            
6.5778074e-005  -2.1772623e-007            
6.5978007e-005  -2.187935e-007            
6.6177941e-005  -2.1962206e-007            
6.6377874e-005  -2.2018167e-007            
6.6577807e-005  -2.2075565e-007            
6.6777741e-005  -2.2158296e-007            
6.6977674e-005  -2.2244932e-007            
6.7177607e-005  -2.2307962e-007            
6.7377541e-005  -2.2384726e-007            
6.7577474e-005  -2.2448941e-007            
6.7777407e-005  -2.2505184e-007            
6.7977341e-005  -2.2561139e-007            
6.8177274e-005  -2.2607789e-007            
6.8377208e-005  -2.2680858e-007            
6.8577141e-005  -2.2783809e-007            
6.8777074e-005  -2.2836716e-007            
6.8977008e-005  -2.28873e-007            
6.9176941e-005  -2.2944963e-007            
6.9376874e-005  -2.3025233e-007            
6.9576808e-005  -2.3118526e-007            
6.9776741e-005  -2.3186322e-007            
6.9976674e-005  -2.3243665e-007            
7.0176608e-005  -2.3297538e-007            
7.0376541e-005  -2.338226e-007            
7.0576474e-005  -2.3470057e-007            
7.0776408e-005  -2.3553289e-007            
7.0976341e-005  -2.3640246e-007            
7.1176275e-005  -2.3722069e-007            
7.1376208e-005  -2.3803863e-007            
7.1576141e-005  -2.3882924e-007            
7.1776075e-005  -2.3950443e-007            
7.1976008e-005  -2.4027312e-007            
7.2175941e-005  -2.4113643e-007            
7.2375875e-005  -2.4177194e-007            
7.2575808e-005  -2.4239046e-007            
7.2775741e-005  -2.4307431e-007            
7.2975675e-005  -2.4374232e-007            
7.3175608e-005  -2.443795e-007            
7.3375541e-005  -2.4485996e-007            
7.3575475e-005  -2.4534555e-007            
7.3775408e-005  -2.4602826e-007            
7.3975342e-005  -2.4657869e-007            
7.4175275e-005  -2.4704105e-007            
7.4375208e-005  -2.4758004e-007            
7.4575142e-005  -2.4815103e-007            
7.4775075e-005  -2.4877444e-007            
7.4975008e-005  -2.4924397e-007            
7.5174942e-005  -2.496049e-007            
7.5374875e-005  -2.5028916e-007            
7.5574808e-005  -2.5084756e-007            
7.5774742e-005  -2.5129779e-007            
7.5974675e-005  -2.5177807e-007            
7.6174608e-005  -2.5216834e-007            
7.6374542e-005  -2.5287529e-007            
7.6574475e-005  -2.5322026e-007            
7.6774408e-005  -2.5369625e-007            
7.6974342e-005  -2.5404617e-007            
7.7174275e-005  -2.5451306e-007            
7.7374209e-005  -2.5503121e-007            
7.7574142e-005  -2.554141e-007            
7.7774075e-005  -2.5581846e-007            
7.7974009e-005  -2.5622699e-007            
7.8173942e-005  -2.5661097e-007            
7.8373875e-005  -2.5700267e-007            
7.8573809e-005  -2.5739472e-007            
7.8773742e-005  -2.5782909e-007            
7.8973675e-005  -2.5834605e-007            
7.9173609e-005  -2.5861469e-007            
7.9373542e-005  -2.589597e-007            
7.9573475e-005  -2.5947546e-007            
7.9773409e-005  -2.597903e-007            
7.9973342e-005  -2.6012169e-007            
8.0173276e-005  -2.6027258e-007            
8.0373209e-005  -2.6046261e-007            
8.0573142e-005  -2.6086146e-007            
8.0773076e-005  -2.6105439e-007            
8.0973009e-005  -2.611431e-007            
8.1172942e-005  -2.6127373e-007            
8.1372876e-005  -2.6141442e-007            
8.1572809e-005  -2.6180344e-007            
8.1772742e-005  -2.6202491e-007            
8.1972676e-005  -2.6192302e-007            
8.2172609e-005  -2.6219077e-007            
8.2372542e-005  -2.6224818e-007            
8.2572476e-005  -2.6248767e-007            
8.2772409e-005  -2.6268114e-007            
8.2972343e-005  -2.6293204e-007            
8.3172276e-005  -2.6308039e-007            
8.3372209e-005  -2.6325831e-007            
8.3572143e-005  -2.633415e-007            
8.3772076e-005  -2.6323639e-007            
8.3972009e-005  -2.6329465e-007            
8.4171943e-005  -2.6362355e-007            
8.4371876e-005  -2.6378668e-007            
8.4571809e-005  -2.6386889e-007            
8.4771743e-005  -2.6379311e-007            
8.4971676e-005  -2.6386412e-007            
8.5171609e-005  -2.6399758e-007            
8.5371543e-005  -2.6413792e-007            
8.5571476e-005  -2.641026e-007            
8.5771409e-005  -2.6408665e-007            
8.5971343e-005  -2.6398193e-007            
8.6171276e-005  -2.6395431e-007            
8.637121e-005  -2.6403159e-007            
8.6571143e-005  -2.638877e-007            
8.6771076e-005  -2.639613e-007            
8.697101e-005  -2.6388678e-007            
8.7170943e-005  -2.6380019e-007            
8.7370876e-005  -2.636714e-007            
8.757081e-005  -2.6348974e-007            
8.7770743e-005  -2.6328795e-007            
8.7970676e-005  -2.6300184e-007            
8.817061e-005  -2.6248949e-007            
8.8370543e-005  -2.6222774e-007            
8.8570476e-005  -2.6194361e-007            
8.877041e-005  -2.6172296e-007            
8.8970343e-005  -2.6149882e-007            
8.9170277e-005  -2.6110695e-007            
8.937021e-005  -2.6089114e-007            
8.9570143e-005  -2.6067345e-007            
8.9770077e-005  -2.6047515e-007            
8.997001e-005  -2.6010138e-007            
9.0169943e-005  -2.5981274e-007            
9.0369877e-005  -2.5936975e-007            
9.056981e-005  -2.5901381e-007            
9.0769743e-005  -2.5855567e-007            
