Surface Profile             
x       y           
[m]     [m]         
0  3.9669416e-009            
1.9993336e-007  5.3885323e-009            
3.9986671e-007  5.8758437e-009            
5.9980007e-007  7.3964598e-009            
7.9973342e-007  7.3687525e-009            
9.9966678e-007  8.0125751e-009            
1.1996001e-006  9.1560199e-009            
1.3995335e-006  1.0372561e-008            
1.5994668e-006  1.102655e-008            
1.7994002e-006  1.1576449e-008            
1.9993336e-006  1.233784e-008            
2.1992669e-006  1.3778956e-008            
2.3992003e-006  1.509214e-008            
2.5991336e-006  1.6045493e-008            
2.799067e-006  1.7111531e-008            
2.9990003e-006  1.8477707e-008            
3.1989337e-006  1.9674207e-008            
3.398867e-006  2.0691725e-008            
3.5988004e-006  2.1717135e-008            
3.7987338e-006  2.3110858e-008            
3.9986671e-006  2.4547978e-008            
4.1986005e-006  2.5466137e-008            
4.3985338e-006  2.6322816e-008            
4.5984672e-006  2.7244236e-008            
4.7984005e-006  2.8714179e-008            
4.9983339e-006  2.9995647e-008            
5.1982672e-006  3.0763972e-008            
5.3982006e-006  3.1688237e-008            
5.598134e-006  3.2727523e-008            
5.7980673e-006  3.3857479e-008            
5.9980007e-006  3.4807159e-008            
6.197934e-006  3.5703217e-008            
6.3978674e-006  3.6925904e-008            
6.5978007e-006  3.7972242e-008            
6.7977341e-006  3.8516195e-008            
6.9976674e-006  3.8943624e-008            
7.1976008e-006  3.9778336e-008            
7.3975342e-006  4.1100299e-008            
7.5974675e-006  4.2255974e-008            
7.7974009e-006  4.293834e-008            
7.9973342e-006  4.370191e-008            
8.1972676e-006  4.4706497e-008            
8.3972009e-006  4.5972619e-008            
8.5971343e-006  4.7207992e-008            
8.7970676e-006  4.819605e-008            
8.997001e-006  4.92653e-008            
9.1969344e-006  5.0476826e-008            
9.3968677e-006  5.1661822e-008            
9.5968011e-006  5.2865593e-008            
9.7967344e-006  5.4063633e-008            
9.9966678e-006  5.5384068e-008            
1.0196601e-005  5.6704039e-008            
1.0396534e-005  5.7745923e-008            
1.0596468e-005  5.8697487e-008            
1.0796401e-005  6.0012171e-008            
1.0996335e-005  6.1494188e-008            
1.1196268e-005  6.3204102e-008            
1.1396201e-005  6.4618263e-008            
1.1596135e-005  6.5810797e-008            
1.1796068e-005  6.7255047e-008            
1.1996001e-005  6.8522601e-008            
1.2195935e-005  6.9972865e-008            
1.2395868e-005  7.1394826e-008            
1.2595801e-005  7.2839492e-008            
1.2795735e-005  7.4288912e-008            
1.2995668e-005  7.5378884e-008            
1.3195601e-005  7.6510632e-008            
1.3395535e-005  7.7923998e-008            
1.3595468e-005  7.9525444e-008            
1.3795402e-005  8.0822769e-008            
1.3995335e-005  8.1862046e-008            
1.4195268e-005  8.2903968e-008            
1.4395202e-005  8.4254889e-008            
1.4595135e-005  8.5565082e-008            
1.4795068e-005  8.6788379e-008            
1.4995002e-005  8.7698106e-008            
1.5194935e-005  8.8664209e-008            
1.5394868e-005  8.991081e-008            
1.5594802e-005  9.0867365e-008            
1.5794735e-005  9.1896916e-008            
1.5994668e-005  9.2867906e-008            
1.6194602e-005  9.3896861e-008            
1.6394535e-005  9.4627227e-008            
1.6594469e-005  9.4937497e-008            
1.6794402e-005  9.5462174e-008            
1.6994335e-005  9.6452441e-008            
1.7194269e-005  9.7629349e-008            
1.7394202e-005  9.8201801e-008            
1.7594135e-005  9.8704269e-008            
1.7794069e-005  9.9112757e-008            
1.7994002e-005  1.0014022e-007            
1.8193935e-005  1.0105498e-007            
1.8393869e-005  1.0170427e-007            
1.8593802e-005  1.023514e-007            
1.8793735e-005  1.0312468e-007            
1.8993669e-005  1.0395799e-007            
1.9193602e-005  1.0462331e-007            
1.9393535e-005  1.0528609e-007            
1.9593469e-005  1.0613277e-007            
1.9793402e-005  1.0691124e-007            
1.9993336e-005  1.0758246e-007            
2.0193269e-005  1.0812433e-007            
2.0393202e-005  1.0881907e-007            
2.0593136e-005  1.0971357e-007            
2.0793069e-005  1.1059147e-007            
2.0993002e-005  1.1116671e-007            
2.1192936e-005  1.1193469e-007            
2.1392869e-005  1.1268055e-007            
2.1592802e-005  1.1386975e-007            
2.1792736e-005  1.1487753e-007            
2.1992669e-005  1.1597731e-007            
2.2192602e-005  1.1718189e-007            
2.2392536e-005  1.1838017e-007            
2.2592469e-005  1.1931806e-007            
2.2792403e-005  1.2048198e-007            
2.2992336e-005  1.2175694e-007            
2.3192269e-005  1.234716e-007            
2.3392203e-005  1.2505098e-007            
2.3592136e-005  1.2625126e-007            
2.3792069e-005  1.2768858e-007            
2.3992003e-005  1.2931389e-007            
2.4191936e-005  1.3114495e-007            
2.4391869e-005  1.3287357e-007            
2.4591803e-005  1.3420318e-007            
2.4791736e-005  1.3594927e-007            
2.4991669e-005  1.3795663e-007            
2.5191603e-005  1.3979871e-007            
2.5391536e-005  1.4159539e-007            
2.5591469e-005  1.4322677e-007            
2.5791403e-005  1.4527162e-007            
2.5991336e-005  1.4759745e-007            
2.619127e-005  1.4944646e-007            
2.6391203e-005  1.5117981e-007            
2.6591136e-005  1.5325581e-007            
2.679107e-005  1.5572208e-007            
2.6991003e-005  1.5801094e-007            
2.7190936e-005  1.6014128e-007            
2.739087e-005  1.6221734e-007            
2.7590803e-005  1.646803e-007            
2.7790736e-005  1.6703613e-007            
2.799067e-005  1.6929449e-007            
2.8190603e-005  1.7127861e-007            
2.8390536e-005  1.7366231e-007            
2.859047e-005  1.7607408e-007            
2.8790403e-005  1.7829699e-007            
2.8990337e-005  1.8010312e-007            
2.919027e-005  1.8203248e-007            
2.9390203e-005  1.8422317e-007            
2.9590137e-005  1.8643538e-007            
2.979007e-005  1.8822822e-007            
2.9990003e-005  1.8996666e-007            
3.0189937e-005  1.9193244e-007            
3.038987e-005  1.9394115e-007            
3.0589803e-005  1.9602706e-007            
3.0789737e-005  1.9777406e-007            
3.098967e-005  1.9959761e-007            
3.1189603e-005  2.0174049e-007            
3.1389537e-005  2.0388653e-007            
3.158947e-005  2.0584928e-007            
3.1789404e-005  2.0773842e-007            
3.1989337e-005  2.0979999e-007            
3.218927e-005  2.1191011e-007            
3.2389204e-005  2.1382463e-007            
3.2589137e-005  2.1551342e-007            
3.278907e-005  2.1772315e-007            
3.2989004e-005  2.200383e-007            
3.3188937e-005  2.2228862e-007            
3.338887e-005  2.2421315e-007            
3.3588804e-005  2.260646e-007            
3.3788737e-005  2.2811676e-007            
3.398867e-005  2.3023956e-007            
3.4188604e-005  2.322192e-007            
3.4388537e-005  2.3377957e-007            
3.458847e-005  2.3550276e-007            
3.4788404e-005  2.3759957e-007            
3.4988337e-005  2.3966423e-007            
3.5188271e-005  2.4139601e-007            
3.5388204e-005  2.4331137e-007            
3.5588137e-005  2.4512339e-007            
3.5788071e-005  2.4700205e-007            
3.5988004e-005  2.4878877e-007            
3.6187937e-005  2.5050489e-007            
3.6387871e-005  2.524127e-007            
3.6587804e-005  2.5448396e-007            
3.6787737e-005  2.5634367e-007            
3.6987671e-005  2.5807967e-007            
3.7187604e-005  2.5974739e-007            
3.7387537e-005  2.6200219e-007            
3.7587471e-005  2.641972e-007            
3.7787404e-005  2.6634862e-007            
3.7987338e-005  2.6835578e-007            
3.8187271e-005  2.703875e-007            
3.8387204e-005  2.7269379e-007            
3.8587138e-005  2.7490046e-007            
3.8787071e-005  2.7696152e-007            
3.8987004e-005  2.7918451e-007            
3.9186938e-005  2.8143792e-007            
3.9386871e-005  2.8350829e-007            
3.9586804e-005  2.8554781e-007            
3.9786738e-005  2.8759849e-007            
3.9986671e-005  2.8980493e-007            
4.0186604e-005  2.9205478e-007            
4.0386538e-005  2.9401167e-007            
4.0586471e-005  2.9575574e-007            
4.0786405e-005  2.9786514e-007            
4.0986338e-005  3.0010293e-007            
4.1186271e-005  3.0216395e-007            
4.1386205e-005  3.0405035e-007            
4.1586138e-005  3.0586908e-007            
4.1786071e-005  3.0786151e-007            
4.1986005e-005  3.098959e-007            
4.2185938e-005  3.1181867e-007            
4.2385871e-005  3.1362714e-007            
4.2585805e-005  3.1561171e-007            
4.2785738e-005  3.1765156e-007            
4.2985671e-005  3.1960312e-007            
4.3185605e-005  3.2154352e-007            
4.3385538e-005  3.2343388e-007            
4.3585471e-005  3.2547052e-007            
4.3785405e-005  3.2759828e-007            
4.3985338e-005  3.2948823e-007            
4.4185272e-005  3.3128627e-007            
4.4385205e-005  3.3341926e-007            
4.4585138e-005  3.3557408e-007            
4.4785072e-005  3.3755618e-007            
4.4985005e-005  3.3955622e-007            
4.5184938e-005  3.4143923e-007            
4.5384872e-005  3.4352659e-007            
4.5584805e-005  3.4561716e-007            
4.5784738e-005  3.4753925e-007            
4.5984672e-005  3.4929922e-007            
4.6184605e-005  3.5117389e-007            
4.6384538e-005  3.5314651e-007            
4.6584472e-005  3.5528277e-007            
4.6784405e-005  3.5746561e-007            
4.6984339e-005  3.5950357e-007            
4.7184272e-005  3.616086e-007            
4.7384205e-005  3.636551e-007            
4.7584139e-005  3.6573692e-007            
4.7784072e-005  3.6775837e-007            
4.7984005e-005  3.6970369e-007            
4.8183939e-005  3.718882e-007            
4.8383872e-005  3.7383842e-007            
4.8583805e-005  3.7586139e-007            
4.8783739e-005  3.7755672e-007            
4.8983672e-005  3.7978052e-007            
4.9183605e-005  3.8184684e-007            
4.9383539e-005  3.8416271e-007            
4.9583472e-005  3.859138e-007            
4.9783406e-005  3.8757833e-007            
4.9983339e-005  3.8959418e-007            
5.0183272e-005  3.9163081e-007            
5.0383206e-005  3.9367057e-007            
5.0583139e-005  3.9561369e-007            
5.0783072e-005  3.9759562e-007            
5.0983006e-005  3.9977937e-007            
5.1182939e-005  4.0195947e-007            
5.1382872e-005  4.0386856e-007            
5.1582806e-005  4.0596576e-007            
5.1782739e-005  4.0829032e-007            
5.1982672e-005  4.1058235e-007            
5.2182606e-005  4.1286182e-007            
5.2382539e-005  4.1489612e-007            
5.2582472e-005  4.1724739e-007            
5.2782406e-005  4.1971672e-007            
5.2982339e-005  4.2177586e-007            
5.3182273e-005  4.2386602e-007            
5.3382206e-005  4.2598469e-007            
5.3582139e-005  4.2823628e-007            
5.3782073e-005  4.3036519e-007            
5.3982006e-005  4.3215967e-007            
5.4181939e-005  4.3383717e-007            
5.4381873e-005  4.3581116e-007            
5.4581806e-005  4.3777639e-007            
5.4781739e-005  4.3984241e-007            
5.4981673e-005  4.4154655e-007            
5.5181606e-005  4.4338704e-007            
5.5381539e-005  4.453967e-007            
5.5581473e-005  4.4715149e-007            
5.5781406e-005  4.4894212e-007            
5.598134e-005  4.5065022e-007            
5.6181273e-005  4.5258284e-007            
5.6381206e-005  4.547751e-007            
5.658114e-005  4.5662333e-007            
5.6781073e-005  4.5835182e-007            
5.6981006e-005  4.6027749e-007            
5.718094e-005  4.6247704e-007            
5.7380873e-005  4.6447176e-007            
5.7580806e-005  4.6603156e-007            
5.778074e-005  4.6778905e-007            
5.7980673e-005  4.6966204e-007            
5.8180606e-005  4.7160386e-007            
5.838054e-005  4.7333359e-007            
5.8580473e-005  4.7500188e-007            
5.8780407e-005  4.7691345e-007            
5.898034e-005  4.7883407e-007            
5.9180273e-005  4.8027828e-007            
5.9380207e-005  4.8179011e-007            
5.958014e-005  4.8339321e-007            
5.9780073e-005  4.8528562e-007            
5.9980007e-005  4.8687052e-007            
6.017994e-005  4.8823344e-007            
6.0379873e-005  4.89571e-007            
6.0579807e-005  4.9108109e-007            
6.077974e-005  4.9266321e-007            
6.0979673e-005  4.9393759e-007            
6.1179607e-005  4.9511072e-007            
6.137954e-005  4.9625729e-007            
6.1579473e-005  4.9764177e-007            
6.1779407e-005  4.9885707e-007            
6.197934e-005  4.9989781e-007            
6.2179274e-005  5.0095184e-007            
6.2379207e-005  5.0230528e-007            
6.257914e-005  5.0379801e-007            
6.2779074e-005  5.0478609e-007            
6.2979007e-005  5.0570426e-007            
6.317894e-005  5.0670171e-007            
6.3378874e-005  5.0787638e-007            
6.3578807e-005  5.0876681e-007            
6.377874e-005  5.0946953e-007            
6.3978674e-005  5.0990675e-007            
6.4178607e-005  5.1089844e-007            
6.437854e-005  5.1157736e-007            
6.4578474e-005  5.1195504e-007            
6.4778407e-005  5.1241944e-007            
6.4978341e-005  5.131203e-007            
6.5178274e-005  5.1395326e-007            
6.5378207e-005  5.1435968e-007            
6.5578141e-005  5.1448836e-007            
6.5778074e-005  5.1492514e-007            
6.5978007e-005  5.1569957e-007            
6.6177941e-005  5.1645826e-007            
6.6377874e-005  5.1682223e-007            
6.6577807e-005  5.1704452e-007            
6.6777741e-005  5.1764662e-007            
6.6977674e-005  5.1821768e-007            
6.7177607e-005  5.1860482e-007            
6.7377541e-005  5.1869877e-007            
6.7577474e-005  5.1895373e-007            
6.7777407e-005  5.1928164e-007            
6.7977341e-005  5.1964259e-007            
6.8177274e-005  5.1961358e-007            
6.8377208e-005  5.1984922e-007            
6.8577141e-005  5.2013211e-007            
6.8777074e-005  5.2038989e-007            
6.8977008e-005  5.2040589e-007            
6.9176941e-005  5.2028241e-007            
6.9376874e-005  5.2054363e-007            
6.9576808e-005  5.2105548e-007            
6.9776741e-005  5.2132862e-007            
6.9976674e-005  5.2139832e-007            
7.0176608e-005  5.2119672e-007            
7.0376541e-005  5.2131262e-007            
7.0576474e-005  5.2178968e-007            
7.0776408e-005  5.2195444e-007            
7.0976341e-005  5.2200641e-007            
7.1176275e-005  5.2198382e-007            
7.1376208e-005  5.2212591e-007            
7.1576141e-005  5.2237964e-007            
7.1776075e-005  5.2230264e-007            
7.1976008e-005  5.2245386e-007            
7.2175941e-005  5.2262934e-007            
7.2375875e-005  5.2267169e-007            
7.2575808e-005  5.2263772e-007            
7.2775741e-005  5.2253295e-007            
7.2975675e-005  5.2256044e-007            
7.3175608e-005  5.2311907e-007            
7.3375541e-005  5.2322279e-007            
7.3575475e-005  5.2303702e-007            
7.3775408e-005  5.2283385e-007            
7.3975342e-005  5.2296502e-007            
7.4175275e-005  5.2356309e-007            
7.4375208e-005  5.2378403e-007            
7.4575142e-005  5.2387183e-007            
7.4775075e-005  5.2378099e-007            
7.4975008e-005  5.2391467e-007            
7.5174942e-005  5.2395536e-007            
7.5374875e-005  5.2384737e-007            
7.5574808e-005  5.2380764e-007            
7.5774742e-005  5.2397115e-007            
7.5974675e-005  5.2409053e-007            
7.6174608e-005  5.2396647e-007            
7.6374542e-005  5.2387204e-007            
7.6574475e-005  5.2396265e-007            
7.6774408e-005  5.2424635e-007            
7.6974342e-005  5.2442248e-007            
7.7174275e-005  5.2421088e-007            
7.7374209e-005  5.241474e-007            
7.7574142e-005  5.2423393e-007            
7.7774075e-005  5.2447044e-007            
7.7974009e-005  5.2466121e-007            
7.8173942e-005  5.2465086e-007            
7.8373875e-005  5.247975e-007            
7.8573809e-005  5.2486219e-007            
7.8773742e-005  5.2493326e-007            
7.8973675e-005  5.2491237e-007            
7.9173609e-005  5.2501737e-007            
7.9373542e-005  5.2532918e-007            
7.9573475e-005  5.2545152e-007            
7.9773409e-005  5.2537325e-007            
7.9973342e-005  5.2550426e-007            
8.0173276e-005  5.2571576e-007            
8.0373209e-005  5.2603594e-007            
8.0573142e-005  5.2624267e-007            
8.0773076e-005  5.2612908e-007            
8.0973009e-005  5.2627299e-007            
8.1172942e-005  5.2640786e-007            
8.1372876e-005  5.2672831e-007            
8.1572809e-005  5.2679737e-007            
8.1772742e-005  5.2680778e-007            
8.1972676e-005  5.271511e-007            
8.2172609e-005  5.2735375e-007            
8.2372542e-005  5.2742783e-007            
8.2572476e-005  5.2744535e-007            
8.2772409e-005  5.2756808e-007            
8.2972343e-005  5.2783987e-007            
8.3172276e-005  5.2786245e-007            
8.3372209e-005  5.2763089e-007            
8.3572143e-005  5.2759937e-007            
8.3772076e-005  5.2781032e-007            
8.3972009e-005  5.2818679e-007            
8.4171943e-005  5.2849936e-007            
8.4371876e-005  5.2860805e-007            
8.4571809e-005  5.2870329e-007            
8.4771743e-005  5.2894773e-007            
8.4971676e-005  5.2909589e-007            
8.5171609e-005  5.2923808e-007            
8.5371543e-005  5.2946099e-007            
8.5571476e-005  5.2953692e-007            
8.5771409e-005  5.2955098e-007            
8.5971343e-005  5.2948755e-007            
8.6171276e-005  5.295178e-007            
8.637121e-005  5.2984539e-007            
8.6571143e-005  5.2996151e-007            
8.6771076e-005  5.3001015e-007            
8.697101e-005  5.3000873e-007            
8.7170943e-005  5.2989931e-007            
8.7370876e-005  5.2994275e-007            
8.757081e-005  5.300063e-007            
8.7770743e-005  5.303192e-007            
8.7970676e-005  5.3024983e-007            
8.817061e-005  5.302706e-007            
8.8370543e-005  5.3011659e-007            
8.8570476e-005  5.2993713e-007            
8.877041e-005  5.2982433e-007            
8.8970343e-005  5.2992475e-007            
8.9170277e-005  5.296183e-007            
8.937021e-005  5.2971018e-007            
8.9570143e-005  5.2964773e-007            
8.9770077e-005  5.2970815e-007            
8.997001e-005  5.2978204e-007            
9.0169943e-005  5.3005881e-007            
9.0369877e-005  5.3036328e-007            
9.056981e-005  5.3033942e-007            
9.0769743e-005  5.3054279e-007            
9.0969677e-005  5.3089162e-007            
9.116961e-005  5.3131989e-007            
9.1369543e-005  5.3222052e-007            
9.1569477e-005  5.3274986e-007            
9.176941e-005  5.3324079e-007            
9.1969344e-005  5.3354677e-007            
9.2169277e-005  5.3420744e-007            
9.236921e-005  5.353326e-007            
9.2569144e-005  5.3628092e-007            
9.2769077e-005  5.369016e-007            
