Surface Profile             
x       y           
[m]     [m]         
0  6.3432189e-009            
1.9993336e-007  8.279209e-009            
3.9986671e-007  1.0095482e-008            
5.9980007e-007  1.1471501e-008            
7.9973342e-007  1.242308e-008            
9.9966678e-007  1.4178854e-008            
1.1996001e-006  1.5441335e-008            
1.3995335e-006  1.6586913e-008            
1.5994668e-006  1.7671834e-008            
1.7994002e-006  1.9037244e-008            
1.9993336e-006  2.0851648e-008            
2.1992669e-006  2.2561029e-008            
2.3992003e-006  2.3981055e-008            
2.5991336e-006  2.5269089e-008            
2.799067e-006  2.6682965e-008            
2.9990003e-006  2.8279843e-008            
3.1989337e-006  2.9806038e-008            
3.398867e-006  3.1463978e-008            
3.5988004e-006  3.3255563e-008            
3.7987338e-006  3.4907838e-008            
3.9986671e-006  3.6537188e-008            
4.1986005e-006  3.7965264e-008            
4.3985338e-006  3.9556381e-008            
4.5984672e-006  4.1422687e-008            
4.7984005e-006  4.3104519e-008            
4.9983339e-006  4.449261e-008            
5.1982672e-006  4.5960599e-008            
5.3982006e-006  4.7676118e-008            
5.598134e-006  4.9471916e-008            
5.7980673e-006  5.1050019e-008            
5.9980007e-006  5.2514804e-008            
6.197934e-006  5.3944524e-008            
6.3978674e-006  5.5566212e-008            
6.5978007e-006  5.7117733e-008            
6.7977341e-006  5.8597952e-008            
6.9976674e-006  6.007138e-008            
7.1976008e-006  6.1342419e-008            
7.3975342e-006  6.2796265e-008            
7.5974675e-006  6.4197734e-008            
7.7974009e-006  6.5633351e-008            
7.9973342e-006  6.6926511e-008            
8.1972676e-006  6.8366341e-008            
8.3972009e-006  6.9619749e-008            
8.5971343e-006  7.0793606e-008            
8.7970676e-006  7.2161405e-008            
8.997001e-006  7.3462371e-008            
9.1969344e-006  7.4770201e-008            
9.3968677e-006  7.6164066e-008            
9.5968011e-006  7.7437855e-008            
9.7967344e-006  7.8838214e-008            
9.9966678e-006  8.0261911e-008            
1.0196601e-005  8.1789474e-008            
1.0396534e-005  8.3326308e-008            
1.0596468e-005  8.4650115e-008            
1.0796401e-005  8.5988751e-008            
1.0996335e-005  8.7452455e-008            
1.1196268e-005  8.8924755e-008            
1.1396201e-005  9.0553746e-008            
1.1596135e-005  9.1955537e-008            
1.1796068e-005  9.332701e-008            
1.1996001e-005  9.479917e-008            
1.2195935e-005  9.6056716e-008            
1.2395868e-005  9.7500957e-008            
1.2595801e-005  9.8853245e-008            
1.2795735e-005  1.00249e-007            
1.2995668e-005  1.0154342e-007            
1.3195601e-005  1.0287386e-007            
1.3395535e-005  1.0419105e-007            
1.3595468e-005  1.0542382e-007            
1.3795402e-005  1.0663539e-007            
1.3995335e-005  1.0791509e-007            
1.4195268e-005  1.0932186e-007            
1.4395202e-005  1.1060286e-007            
1.4595135e-005  1.1193381e-007            
1.4795068e-005  1.1315095e-007            
1.4995002e-005  1.1442128e-007            
1.5194935e-005  1.1584504e-007            
1.5394868e-005  1.1703722e-007            
1.5594802e-005  1.1826397e-007            
1.5794735e-005  1.1937838e-007            
1.5994668e-005  1.2045464e-007            
1.6194602e-005  1.2156243e-007            
1.6394535e-005  1.2254669e-007            
1.6594469e-005  1.2372546e-007            
1.6794402e-005  1.2474867e-007            
1.6994335e-005  1.2554675e-007            
1.7194269e-005  1.2634458e-007            
1.7394202e-005  1.2720663e-007            
1.7594135e-005  1.2801119e-007            
1.7794069e-005  1.2884455e-007            
1.7994002e-005  1.2934812e-007            
1.8193935e-005  1.3009929e-007            
1.8393869e-005  1.3078964e-007            
1.8593802e-005  1.3138828e-007            
1.8793735e-005  1.3196788e-007            
1.8993669e-005  1.326639e-007            
1.9193602e-005  1.3343409e-007            
1.9393535e-005  1.3413204e-007            
1.9593469e-005  1.3454352e-007            
1.9793402e-005  1.3487722e-007            
1.9993336e-005  1.3534044e-007            
2.0193269e-005  1.3586964e-007            
2.0393202e-005  1.3622983e-007            
2.0593136e-005  1.364892e-007            
2.0793069e-005  1.3677999e-007            
2.0993002e-005  1.3725153e-007            
2.1192936e-005  1.3759157e-007            
2.1392869e-005  1.3817808e-007            
2.1592802e-005  1.3853053e-007            
2.1792736e-005  1.3891545e-007            
2.1992669e-005  1.3946048e-007            
2.2192602e-005  1.4000352e-007            
2.2392536e-005  1.4047304e-007            
2.2592469e-005  1.4095181e-007            
2.2792403e-005  1.4122405e-007            
2.2992336e-005  1.4167626e-007            
2.3192269e-005  1.4213744e-007            
2.3392203e-005  1.4254479e-007            
2.3592136e-005  1.4308727e-007            
2.3792069e-005  1.4357843e-007            
2.3992003e-005  1.4405705e-007            
2.4191936e-005  1.4421037e-007            
2.4391869e-005  1.4449207e-007            
2.4591803e-005  1.4492737e-007            
2.4791736e-005  1.4532526e-007            
2.4991669e-005  1.4585823e-007            
2.5191603e-005  1.4610885e-007            
2.5391536e-005  1.4621195e-007            
2.5591469e-005  1.4641335e-007            
2.5791403e-005  1.4660011e-007            
2.5991336e-005  1.4695564e-007            
2.619127e-005  1.4725444e-007            
2.6391203e-005  1.473104e-007            
2.6591136e-005  1.4724772e-007            
2.679107e-005  1.4738882e-007            
2.6991003e-005  1.4756028e-007            
2.7190936e-005  1.4772307e-007            
2.739087e-005  1.4774114e-007            
2.7590803e-005  1.4787526e-007            
2.7790736e-005  1.4759125e-007            
2.799067e-005  1.4737765e-007            
2.8190603e-005  1.472913e-007            
2.8390536e-005  1.4727922e-007            
2.859047e-005  1.4731789e-007            
2.8790403e-005  1.4689903e-007            
2.8990337e-005  1.4666265e-007            
2.919027e-005  1.4651309e-007            
2.9390203e-005  1.4634942e-007            
2.9590137e-005  1.4606246e-007            
2.979007e-005  1.4584828e-007            
2.9990003e-005  1.4556406e-007            
3.0189937e-005  1.4518485e-007            
3.038987e-005  1.4483396e-007            
3.0589803e-005  1.443965e-007            
3.0789737e-005  1.4413177e-007            
3.098967e-005  1.4391563e-007            
3.1189603e-005  1.4355001e-007            
3.1389537e-005  1.4316968e-007            
3.158947e-005  1.4270486e-007            
3.1789404e-005  1.423806e-007            
3.1989337e-005  1.4220097e-007            
3.218927e-005  1.4182303e-007            
3.2389204e-005  1.413129e-007            
3.2589137e-005  1.4080169e-007            
3.278907e-005  1.4028548e-007            
3.2989004e-005  1.4008344e-007            
3.3188937e-005  1.3966639e-007            
3.338887e-005  1.3914696e-007            
3.3588804e-005  1.3853262e-007            
3.3788737e-005  1.3794272e-007            
3.398867e-005  1.3747463e-007            
3.4188604e-005  1.3703177e-007            
3.4388537e-005  1.3653078e-007            
3.458847e-005  1.3623344e-007            
3.4788404e-005  1.3577306e-007            
3.4988337e-005  1.3548177e-007            
3.5188271e-005  1.3521199e-007            
3.5388204e-005  1.3490577e-007            
3.5588137e-005  1.3458574e-007            
3.5788071e-005  1.3434994e-007            
3.5988004e-005  1.3392277e-007            
3.6187937e-005  1.3352515e-007            
3.6387871e-005  1.3328987e-007            
3.6587804e-005  1.3302056e-007            
3.6787737e-005  1.3284454e-007            
3.6987671e-005  1.3249198e-007            
3.7187604e-005  1.3228631e-007            
3.7387537e-005  1.3190873e-007            
3.7587471e-005  1.3170189e-007            
3.7787404e-005  1.3121406e-007            
3.7987338e-005  1.3076659e-007            
3.8187271e-005  1.3040298e-007            
3.8387204e-005  1.2991738e-007            
3.8587138e-005  1.2935123e-007            
3.8787071e-005  1.2892492e-007            
3.8987004e-005  1.2833144e-007            
3.9186938e-005  1.2767007e-007            
3.9386871e-005  1.2708993e-007            
3.9586804e-005  1.2626333e-007            
3.9786738e-005  1.256906e-007            
3.9986671e-005  1.2485684e-007            
4.0186604e-005  1.2401301e-007            
4.0386538e-005  1.2316051e-007            
4.0586471e-005  1.2228829e-007            
4.0786405e-005  1.2143386e-007            
4.0986338e-005  1.2046034e-007            
4.1186271e-005  1.1950315e-007            
4.1386205e-005  1.1837807e-007            
4.1586138e-005  1.1733641e-007            
4.1786071e-005  1.1627158e-007            
4.1986005e-005  1.1523234e-007            
4.2185938e-005  1.1412514e-007            
4.2385871e-005  1.1289523e-007            
4.2585805e-005  1.1158378e-007            
4.2785738e-005  1.1056434e-007            
4.2985671e-005  1.0939738e-007            
4.3185605e-005  1.0818213e-007            
4.3385538e-005  1.0699567e-007            
4.3585471e-005  1.0567246e-007            
4.3785405e-005  1.0440056e-007            
4.3985338e-005  1.0310057e-007            
4.4185272e-005  1.0183105e-007            
4.4385205e-005  1.0050948e-007            
4.4585138e-005  9.9184927e-008            
4.4785072e-005  9.7687839e-008            
4.4985005e-005  9.6309545e-008            
4.5184938e-005  9.5017258e-008            
4.5384872e-005  9.3709062e-008            
4.5584805e-005  9.2603719e-008            
4.5784738e-005  9.1249493e-008            
4.5984672e-005  8.9926845e-008            
4.6184605e-005  8.880078e-008            
4.6384538e-005  8.7614936e-008            
4.6584472e-005  8.6689244e-008            
4.6784405e-005  8.5470231e-008            
4.6984339e-005  8.427408e-008            
4.7184272e-005  8.3110603e-008            
4.7384205e-005  8.192627e-008            
4.7584139e-005  8.0828097e-008            
4.7784072e-005  7.9670649e-008            
4.7984005e-005  7.8397444e-008            
4.8183939e-005  7.7102724e-008            
4.8383872e-005  7.5830299e-008            
4.8583805e-005  7.468711e-008            
4.8783739e-005  7.3583271e-008            
4.8983672e-005  7.2560399e-008            
4.9183605e-005  7.1624938e-008            
4.9383539e-005  7.042106e-008            
4.9583472e-005  6.9230564e-008            
4.9783406e-005  6.8027857e-008            
4.9983339e-005  6.7000047e-008            
5.0183272e-005  6.6141152e-008            
5.0383206e-005  6.4936212e-008            
5.0583139e-005  6.3637884e-008            
5.0783072e-005  6.2493738e-008            
5.0983006e-005  6.1368132e-008            
5.1182939e-005  6.0486714e-008            
5.1382872e-005  5.9649838e-008            
5.1582806e-005  5.8597338e-008            
5.1782739e-005  5.7270365e-008            
5.1982672e-005  5.5982712e-008            
5.2182606e-005  5.4587115e-008            
5.2382539e-005  5.3511731e-008            
5.2582472e-005  5.2342173e-008            
5.2782406e-005  5.0946343e-008            
5.2982339e-005  4.9473345e-008            
5.3182273e-005  4.7862248e-008            
5.3382206e-005  4.6400898e-008            
5.3582139e-005  4.5086441e-008            
5.3782073e-005  4.363798e-008            
5.3982006e-005  4.1979286e-008            
5.4181939e-005  4.0228875e-008            
5.4381873e-005  3.8408143e-008            
5.4581806e-005  3.6908962e-008            
5.4781739e-005  3.5419416e-008            
5.4981673e-005  3.3927628e-008            
5.5181606e-005  3.2184739e-008            
5.5381539e-005  3.0400648e-008            
5.5581473e-005  2.860823e-008            
5.5781406e-005  2.6852038e-008            
5.598134e-005  2.5236672e-008            
5.6181273e-005  2.3527437e-008            
5.6381206e-005  2.1533006e-008            
5.658114e-005  1.9763846e-008            
5.6781073e-005  1.7924607e-008            
5.6981006e-005  1.61319e-008            
5.718094e-005  1.4413003e-008            
5.7380873e-005  1.2768849e-008            
5.7580806e-005  1.1132705e-008            
5.778074e-005  9.2910552e-009            
5.7980673e-005  7.358587e-009            
5.8180606e-005  5.5062837e-009            
5.838054e-005  3.9414266e-009            
5.8580473e-005  2.2740083e-009            
5.8780407e-005  5.23743e-010            
5.898034e-005  -1.4134122e-009            
5.9180273e-005  -3.0749371e-009            
5.9380207e-005  -4.711021e-009            
5.958014e-005  -6.296259e-009            
5.9780073e-005  -8.0409874e-009            
5.9980007e-005  -9.8204906e-009            
6.017994e-005  -1.1446009e-008            
6.0379873e-005  -1.3183169e-008            
6.0579807e-005  -1.4939536e-008            
6.077974e-005  -1.6513444e-008            
6.0979673e-005  -1.8070749e-008            
6.1179607e-005  -1.959782e-008            
6.137954e-005  -2.1236053e-008            
6.1579473e-005  -2.2976365e-008            
6.1779407e-005  -2.4589052e-008            
6.197934e-005  -2.6175609e-008            
6.2179274e-005  -2.7857403e-008            
6.2379207e-005  -2.9594294e-008            
6.257914e-005  -3.1440919e-008            
6.2779074e-005  -3.3121869e-008            
6.2979007e-005  -3.4895275e-008            
6.317894e-005  -3.6817303e-008            
6.3378874e-005  -3.8562501e-008            
6.3578807e-005  -4.0266851e-008            
6.377874e-005  -4.2069427e-008            
6.3978674e-005  -4.3897562e-008            
6.4178607e-005  -4.5986997e-008            
6.437854e-005  -4.7960932e-008            
6.4578474e-005  -4.9643139e-008            
6.4778407e-005  -5.1420734e-008            
6.4978341e-005  -5.3234375e-008            
6.5178274e-005  -5.5466575e-008            
6.5378207e-005  -5.7558739e-008            
6.5578141e-005  -5.9495896e-008            
6.5778074e-005  -6.1590504e-008            
6.5978007e-005  -6.3575938e-008            
6.6177941e-005  -6.5726875e-008            
6.6377874e-005  -6.79395e-008            
6.6577807e-005  -7.0029984e-008            
6.6777741e-005  -7.2262155e-008            
6.6977674e-005  -7.4442004e-008            
6.7177607e-005  -7.6561242e-008            
6.7377541e-005  -7.8848783e-008            
6.7577474e-005  -8.1259478e-008            
6.7777407e-005  -8.3764977e-008            
6.7977341e-005  -8.6145958e-008            
6.8177274e-005  -8.8140387e-008            
6.8377208e-005  -9.0294237e-008            
6.8577141e-005  -9.2487288e-008            
6.8777074e-005  -9.5075183e-008            
6.8977008e-005  -9.7521147e-008            
6.9176941e-005  -9.9751011e-008            
6.9376874e-005  -1.0192655e-007            
6.9576808e-005  -1.0415435e-007            
6.9776741e-005  -1.0640204e-007            
6.9976674e-005  -1.0875501e-007            
7.0176608e-005  -1.1113319e-007            
7.0376541e-005  -1.1349045e-007            
7.0576474e-005  -1.1561787e-007            
7.0776408e-005  -1.177382e-007            
7.0976341e-005  -1.2006949e-007            
7.1176275e-005  -1.2262529e-007            
7.1376208e-005  -1.2491621e-007            
7.1576141e-005  -1.2725644e-007            
7.1776075e-005  -1.2932927e-007            
7.1976008e-005  -1.3180449e-007            
7.2175941e-005  -1.3431783e-007            
7.2375875e-005  -1.367911e-007            
7.2575808e-005  -1.3933565e-007            
7.2775741e-005  -1.4185191e-007            
7.2975675e-005  -1.4415658e-007            
7.3175608e-005  -1.4648926e-007            
7.3375541e-005  -1.4879908e-007            
7.3575475e-005  -1.5131705e-007            
7.3775408e-005  -1.5406913e-007            
7.3975342e-005  -1.5652682e-007            
7.4175275e-005  -1.5883246e-007            
7.4375208e-005  -1.6094877e-007            
7.4575142e-005  -1.6339045e-007            
7.4775075e-005  -1.661631e-007            
7.4975008e-005  -1.687596e-007            
7.5174942e-005  -1.7121301e-007            
7.5374875e-005  -1.7353095e-007            
7.5574808e-005  -1.7600771e-007            
7.5774742e-005  -1.7867048e-007            
7.5974675e-005  -1.8136032e-007            
7.6174608e-005  -1.8409873e-007            
7.6374542e-005  -1.8664201e-007            
7.6574475e-005  -1.8902174e-007            
7.6774408e-005  -1.9163126e-007            
7.6974342e-005  -1.9427337e-007            
7.7174275e-005  -1.9708124e-007            
7.7374209e-005  -1.9986035e-007            
7.7574142e-005  -2.022855e-007            
7.7774075e-005  -2.0487174e-007            
7.7974009e-005  -2.0750445e-007            
7.8173942e-005  -2.1037974e-007            
7.8373875e-005  -2.1330804e-007            
7.8573809e-005  -2.1580551e-007            
7.8773742e-005  -2.1844498e-007            
7.8973675e-005  -2.2099329e-007            
7.9173609e-005  -2.2343327e-007            
7.9373542e-005  -2.2584651e-007            
7.9573475e-005  -2.2829096e-007            
7.9773409e-005  -2.310187e-007            
7.9973342e-005  -2.3354587e-007            
8.0173276e-005  -2.357804e-007            
8.0373209e-005  -2.3805498e-007            
8.0573142e-005  -2.406719e-007            
8.0773076e-005  -2.4337945e-007            
8.0973009e-005  -2.4608708e-007            
8.1172942e-005  -2.4857913e-007            
8.1372876e-005  -2.5099006e-007            
8.1572809e-005  -2.5381576e-007            
8.1772742e-005  -2.5670832e-007            
8.1972676e-005  -2.5957408e-007            
8.2172609e-005  -2.6239505e-007            
8.2372542e-005  -2.6515558e-007            
8.2572476e-005  -2.6775309e-007            
8.2772409e-005  -2.7056942e-007            
8.2972343e-005  -2.7319225e-007            
8.3172276e-005  -2.7590735e-007            
8.3372209e-005  -2.7866557e-007            
8.3572143e-005  -2.8149179e-007            
8.3772076e-005  -2.8395971e-007            
8.3972009e-005  -2.8647466e-007            
8.4171943e-005  -2.890461e-007            
8.4371876e-005  -2.9171646e-007            
8.4571809e-005  -2.9452964e-007            
8.4771743e-005  -2.9688823e-007            
8.4971676e-005  -2.9919422e-007            
8.5171609e-005  -3.0168593e-007            
8.5371543e-005  -3.0391069e-007            
8.5571476e-005  -3.0636007e-007            
8.5771409e-005  -3.0868629e-007            
8.5971343e-005  -3.1087304e-007            
8.6171276e-005  -3.1323897e-007            
8.637121e-005  -3.1537806e-007            
8.6571143e-005  -3.1749291e-007            
8.6771076e-005  -3.1998145e-007            
8.697101e-005  -3.2233159e-007            
8.7170943e-005  -3.2456448e-007            
8.7370876e-005  -3.2683264e-007            
8.757081e-005  -3.2877709e-007            
8.7770743e-005  -3.3100436e-007            
8.7970676e-005  -3.3330449e-007            
8.817061e-005  -3.3540546e-007            
8.8370543e-005  -3.3758998e-007            
8.8570476e-005  -3.3966433e-007            
8.877041e-005  -3.416119e-007            
8.8970343e-005  -3.437374e-007            
8.9170277e-005  -3.4563712e-007            
8.937021e-005  -3.4775834e-007            
8.9570143e-005  -3.4997057e-007            
8.9770077e-005  -3.5187579e-007            
8.997001e-005  -3.5343266e-007            
9.0169943e-005  -3.5508379e-007            
9.0369877e-005  -3.5713106e-007            
9.056981e-005  -3.5955938e-007            
9.0769743e-005  -3.6168235e-007            
9.0969677e-005  -3.6347375e-007            
9.116961e-005  -3.6522834e-007            
9.1369543e-005  -3.6736706e-007            
9.1569477e-005  -3.6967041e-007            
9.176941e-005  -3.7184225e-007            
9.1969344e-005  -3.7404692e-007            
