Surface Profile             
x       y           
[m]     [m]         
0  3.6166415e-009            
1.9993336e-007  5.1535602e-009            
3.9986671e-007  6.3335346e-009            
5.9980007e-007  7.4424557e-009            
7.9973342e-007  8.2831252e-009            
9.9966678e-007  9.0907364e-009            
1.1996001e-006  1.0011905e-008            
1.3995335e-006  1.0920475e-008            
1.5994668e-006  1.1959804e-008            
1.7994002e-006  1.2978193e-008            
1.9993336e-006  1.4151753e-008            
2.1992669e-006  1.5375162e-008            
2.3992003e-006  1.6413372e-008            
2.5991336e-006  1.7613012e-008            
2.799067e-006  1.8920178e-008            
2.9990003e-006  2.0172399e-008            
3.1989337e-006  2.1773707e-008            
3.398867e-006  2.3410391e-008            
3.5988004e-006  2.4932606e-008            
3.7987338e-006  2.6479311e-008            
3.9986671e-006  2.7937346e-008            
4.1986005e-006  2.9714454e-008            
4.3985338e-006  3.1684403e-008            
4.5984672e-006  3.3547394e-008            
4.7984005e-006  3.5411745e-008            
4.9983339e-006  3.7224194e-008            
5.1982672e-006  3.8986507e-008            
5.3982006e-006  4.1062704e-008            
5.598134e-006  4.2963877e-008            
5.7980673e-006  4.5147445e-008            
5.9980007e-006  4.7246016e-008            
6.197934e-006  4.9169435e-008            
6.3978674e-006  5.1028383e-008            
6.5978007e-006  5.30678e-008            
6.7977341e-006  5.5107927e-008            
6.9976674e-006  5.7180878e-008            
7.1976008e-006  5.9075474e-008            
7.3975342e-006  6.0825122e-008            
7.5974675e-006  6.2720505e-008            
7.7974009e-006  6.4764536e-008            
7.9973342e-006  6.6784645e-008            
8.1972676e-006  6.8729563e-008            
8.3972009e-006  7.0498866e-008            
8.5971343e-006  7.2374226e-008            
8.7970676e-006  7.4239606e-008            
8.997001e-006  7.6162237e-008            
9.1969344e-006  7.7931062e-008            
9.3968677e-006  7.9867621e-008            
9.5968011e-006  8.1668731e-008            
9.7967344e-006  8.317144e-008            
9.9966678e-006  8.477144e-008            
1.0196601e-005  8.6393108e-008            
1.0396534e-005  8.7921312e-008            
1.0596468e-005  8.9574158e-008            
1.0796401e-005  9.0912786e-008            
1.0996335e-005  9.2152137e-008            
1.1196268e-005  9.3597309e-008            
1.1396201e-005  9.5066492e-008            
1.1596135e-005  9.6584916e-008            
1.1796068e-005  9.7951706e-008            
1.1996001e-005  9.8935024e-008            
1.2195935e-005  1.0030469e-007            
1.2395868e-005  1.0160251e-007            
1.2595801e-005  1.0295397e-007            
1.2795735e-005  1.0437433e-007            
1.2995668e-005  1.0586171e-007            
1.3195601e-005  1.0721384e-007            
1.3395535e-005  1.0849862e-007            
1.3595468e-005  1.0974205e-007            
1.3795402e-005  1.1100469e-007            
1.3995335e-005  1.1245074e-007            
1.4195268e-005  1.1375366e-007            
1.4395202e-005  1.1488208e-007            
1.4595135e-005  1.1605076e-007            
1.4795068e-005  1.173028e-007            
1.4995002e-005  1.1860557e-007            
1.5194935e-005  1.1986761e-007            
1.5394868e-005  1.2123671e-007            
1.5594802e-005  1.2247516e-007            
1.5794735e-005  1.2363405e-007            
1.5994668e-005  1.2474318e-007            
1.6194602e-005  1.260307e-007            
1.6394535e-005  1.2726814e-007            
1.6594469e-005  1.2857143e-007            
1.6794402e-005  1.296535e-007            
1.6994335e-005  1.3081606e-007            
1.7194269e-005  1.3188754e-007            
1.7394202e-005  1.3318958e-007            
1.7594135e-005  1.344872e-007            
1.7794069e-005  1.356913e-007            
1.7994002e-005  1.369572e-007            
1.8193935e-005  1.3805966e-007            
1.8393869e-005  1.3940219e-007            
1.8593802e-005  1.4052367e-007            
1.8793735e-005  1.4153885e-007            
1.8993669e-005  1.4286162e-007            
1.9193602e-005  1.4422701e-007            
1.9393535e-005  1.4547992e-007            
1.9593469e-005  1.4653409e-007            
1.9793402e-005  1.4757692e-007            
1.9993336e-005  1.4880913e-007            
2.0193269e-005  1.500645e-007            
2.0393202e-005  1.5106237e-007            
2.0593136e-005  1.5224486e-007            
2.0793069e-005  1.5331673e-007            
2.0993002e-005  1.5445817e-007            
2.1192936e-005  1.5557931e-007            
2.1392869e-005  1.5672575e-007            
2.1592802e-005  1.5792199e-007            
2.1792736e-005  1.5889458e-007            
2.1992669e-005  1.5989715e-007            
2.2192602e-005  1.608517e-007            
2.2392536e-005  1.6180956e-007            
2.2592469e-005  1.6292518e-007            
2.2792403e-005  1.6392281e-007            
2.2992336e-005  1.6477043e-007            
2.3192269e-005  1.6559684e-007            
2.3392203e-005  1.6653979e-007            
2.3592136e-005  1.6748163e-007            
2.3792069e-005  1.6837691e-007            
2.3992003e-005  1.6911856e-007            
2.4191936e-005  1.6998957e-007            
2.4391869e-005  1.7092561e-007            
2.4591803e-005  1.716186e-007            
2.4791736e-005  1.7232662e-007            
2.4991669e-005  1.7314944e-007            
2.5191603e-005  1.7418398e-007            
2.5391536e-005  1.749388e-007            
2.5591469e-005  1.7557357e-007            
2.5791403e-005  1.7611611e-007            
2.5991336e-005  1.7699835e-007            
2.619127e-005  1.7796099e-007            
2.6391203e-005  1.7899355e-007            
2.6591136e-005  1.7963206e-007            
2.679107e-005  1.8026735e-007            
2.6991003e-005  1.8099357e-007            
2.7190936e-005  1.8176349e-007            
2.739087e-005  1.8260495e-007            
2.7590803e-005  1.8343982e-007            
2.7790736e-005  1.8429598e-007            
2.799067e-005  1.8520055e-007            
2.8190603e-005  1.8586252e-007            
2.8390536e-005  1.8664938e-007            
2.859047e-005  1.8751494e-007            
2.8790403e-005  1.8843336e-007            
2.8990337e-005  1.8913877e-007            
2.919027e-005  1.8970917e-007            
2.9390203e-005  1.9028732e-007            
2.9590137e-005  1.9114413e-007            
2.979007e-005  1.9188338e-007            
2.9990003e-005  1.92557e-007            
3.0189937e-005  1.9301105e-007            
3.038987e-005  1.9343331e-007            
3.0589803e-005  1.939545e-007            
3.0789737e-005  1.9449142e-007            
3.098967e-005  1.9506429e-007            
3.1189603e-005  1.9559957e-007            
3.1389537e-005  1.9595047e-007            
3.158947e-005  1.9630999e-007            
3.1789404e-005  1.967504e-007            
3.1989337e-005  1.9721908e-007            
3.218927e-005  1.9792094e-007            
3.2389204e-005  1.9835534e-007            
3.2589137e-005  1.9857871e-007            
3.278907e-005  1.9899304e-007            
3.2989004e-005  1.9944256e-007            
3.3188937e-005  2.0015399e-007            
3.338887e-005  2.0070857e-007            
3.3588804e-005  2.009873e-007            
3.3788737e-005  2.0127029e-007            
3.398867e-005  2.0169106e-007            
3.4188604e-005  2.025104e-007            
3.4388537e-005  2.0299766e-007            
3.458847e-005  2.0322184e-007            
3.4788404e-005  2.035219e-007            
3.4988337e-005  2.0383848e-007            
3.5188271e-005  2.0417859e-007            
3.5388204e-005  2.0441409e-007            
3.5588137e-005  2.0473835e-007            
3.5788071e-005  2.0541913e-007            
3.5988004e-005  2.0575842e-007            
3.6187937e-005  2.0579095e-007            
3.6387871e-005  2.0577075e-007            
3.6587804e-005  2.0606267e-007            
3.6787737e-005  2.0664244e-007            
3.6987671e-005  2.0703221e-007            
3.7187604e-005  2.0709108e-007            
3.7387537e-005  2.0699815e-007            
3.7587471e-005  2.0717854e-007            
3.7787404e-005  2.0741224e-007            
3.7987338e-005  2.076723e-007            
3.8187271e-005  2.0763224e-007            
3.8387204e-005  2.0757627e-007            
3.8587138e-005  2.0761477e-007            
3.8787071e-005  2.0760216e-007            
3.8987004e-005  2.0768926e-007            
3.9186938e-005  2.0769138e-007            
3.9386871e-005  2.0775244e-007            
3.9586804e-005  2.0771706e-007            
3.9786738e-005  2.0735632e-007            
3.9986671e-005  2.0719184e-007            
4.0186604e-005  2.0728385e-007            
4.0386538e-005  2.073882e-007            
4.0586471e-005  2.0725041e-007            
4.0786405e-005  2.0701278e-007            
4.0986338e-005  2.0679457e-007            
4.1186271e-005  2.0646829e-007            
4.1386205e-005  2.0619087e-007            
4.1586138e-005  2.0600286e-007            
4.1786071e-005  2.0581722e-007            
4.1986005e-005  2.0573342e-007            
4.2185938e-005  2.0538276e-007            
4.2385871e-005  2.0493208e-007            
4.2585805e-005  2.0469934e-007            
4.2785738e-005  2.0456915e-007            
4.2985671e-005  2.0447061e-007            
4.3185605e-005  2.0430522e-007            
4.3385538e-005  2.0388205e-007            
4.3585471e-005  2.0371932e-007            
4.3785405e-005  2.0356761e-007            
4.3985338e-005  2.0333285e-007            
4.4185272e-005  2.032158e-007            
4.4385205e-005  2.0301531e-007            
4.4585138e-005  2.0284944e-007            
4.4785072e-005  2.0271059e-007            
4.4985005e-005  2.024167e-007            
4.5184938e-005  2.021817e-007            
4.5384872e-005  2.0222828e-007            
4.5584805e-005  2.0215137e-007            
4.5784738e-005  2.0204651e-007            
4.5984672e-005  2.0163134e-007            
4.6184605e-005  2.0150223e-007            
4.6384538e-005  2.0138848e-007            
4.6584472e-005  2.0131565e-007            
4.6784405e-005  2.0114732e-007            
4.6984339e-005  2.0084036e-007            
4.7184272e-005  2.0049453e-007            
4.7384205e-005  2.0038263e-007            
4.7584139e-005  2.0028776e-007            
4.7784072e-005  2.003703e-007            
4.7984005e-005  2.0047033e-007            
4.8183939e-005  2.0036556e-007            
4.8383872e-005  2.0007085e-007            
4.8583805e-005  1.9967967e-007            
4.8783739e-005  1.9960392e-007            
4.8983672e-005  1.9983999e-007            
4.9183605e-005  1.9975775e-007            
4.9383539e-005  1.9957105e-007            
4.9583472e-005  1.9921866e-007            
4.9783406e-005  1.9906144e-007            
4.9983339e-005  1.988858e-007            
5.0183272e-005  1.9864464e-007            
5.0383206e-005  1.9827028e-007            
5.0583139e-005  1.978532e-007            
5.0783072e-005  1.9734158e-007            
5.0983006e-005  1.966667e-007            
5.1182939e-005  1.9586556e-007            
5.1382872e-005  1.9561097e-007            
5.1582806e-005  1.9554627e-007            
5.1782739e-005  1.9490826e-007            
5.1982672e-005  1.9382184e-007            
5.2182606e-005  1.927395e-007            
5.2382539e-005  1.9213083e-007            
5.2582472e-005  1.9181538e-007            
5.2782406e-005  1.9116752e-007            
5.2982339e-005  1.9019441e-007            
5.3182273e-005  1.8918361e-007            
5.3382206e-005  1.8831437e-007            
5.3582139e-005  1.874124e-007            
5.3782073e-005  1.8658929e-007            
5.3982006e-005  1.8588713e-007            
5.4181939e-005  1.8525169e-007            
5.4381873e-005  1.8435846e-007            
5.4581806e-005  1.8335099e-007            
5.4781739e-005  1.8264594e-007            
5.4981673e-005  1.8229827e-007            
5.5181606e-005  1.8191261e-007            
5.5381539e-005  1.8124502e-007            
5.5581473e-005  1.8034397e-007            
5.5781406e-005  1.7981901e-007            
5.598134e-005  1.7940597e-007            
5.6181273e-005  1.7912756e-007            
5.6381206e-005  1.7854896e-007            
5.658114e-005  1.7798242e-007            
5.6781073e-005  1.7742752e-007            
5.6981006e-005  1.7682591e-007            
5.718094e-005  1.7595881e-007            
5.7380873e-005  1.7543667e-007            
5.7580806e-005  1.7522209e-007            
5.778074e-005  1.7490528e-007            
5.7980673e-005  1.7422039e-007            
5.8180606e-005  1.7347276e-007            
5.838054e-005  1.7293316e-007            
5.8580473e-005  1.7268206e-007            
5.8780407e-005  1.723879e-007            
5.898034e-005  1.7180404e-007            
5.9180273e-005  1.7115945e-007            
5.9380207e-005  1.7090818e-007            
5.958014e-005  1.7052939e-007            
5.9780073e-005  1.7028077e-007            
5.9980007e-005  1.699603e-007            
6.017994e-005  1.6960351e-007            
6.0379873e-005  1.6935486e-007            
6.0579807e-005  1.6912878e-007            
6.077974e-005  1.6872204e-007            
6.0979673e-005  1.6851135e-007            
6.1179607e-005  1.6841518e-007            
6.137954e-005  1.683068e-007            
6.1579473e-005  1.6820525e-007            
6.1779407e-005  1.6779696e-007            
6.197934e-005  1.675152e-007            
6.2179274e-005  1.6737677e-007            
6.2379207e-005  1.6722643e-007            
6.257914e-005  1.6718431e-007            
6.2779074e-005  1.6702533e-007            
6.2979007e-005  1.6684488e-007            
6.317894e-005  1.6656447e-007            
6.3378874e-005  1.6649494e-007            
6.3578807e-005  1.6654545e-007            
6.377874e-005  1.6647835e-007            
6.3978674e-005  1.6626314e-007            
6.4178607e-005  1.6612245e-007            
6.437854e-005  1.660837e-007            
6.4578474e-005  1.6612665e-007            
6.4778407e-005  1.6612212e-007            
6.4978341e-005  1.6593832e-007            
6.5178274e-005  1.6577774e-007            
6.5378207e-005  1.6553338e-007            
6.5578141e-005  1.6561908e-007            
6.5778074e-005  1.6559878e-007            
6.5978007e-005  1.6566653e-007            
6.6177941e-005  1.6591105e-007            
6.6377874e-005  1.6604799e-007            
6.6577807e-005  1.6604677e-007            
6.6777741e-005  1.6621008e-007            
6.6977674e-005  1.6638937e-007            
6.7177607e-005  1.6674924e-007            
6.7377541e-005  1.6703535e-007            
6.7577474e-005  1.6686206e-007            
6.7777407e-005  1.6686146e-007            
6.7977341e-005  1.6702424e-007            
6.8177274e-005  1.6721537e-007            
6.8377208e-005  1.6750088e-007            
6.8577141e-005  1.6749578e-007            
6.8777074e-005  1.6746135e-007            
6.8977008e-005  1.6763645e-007            
6.9176941e-005  1.6759668e-007            
6.9376874e-005  1.6773637e-007            
6.9576808e-005  1.6777884e-007            
6.9776741e-005  1.6775062e-007            
6.9976674e-005  1.6771674e-007            
7.0176608e-005  1.6748438e-007            
7.0376541e-005  1.6715854e-007            
7.0576474e-005  1.6721331e-007            
7.0776408e-005  1.6729996e-007            
7.0976341e-005  1.6729661e-007            
7.1176275e-005  1.6702801e-007            
7.1376208e-005  1.6677334e-007            
7.1576141e-005  1.6681729e-007            
7.1776075e-005  1.6674765e-007            
7.1976008e-005  1.6672253e-007            
7.2175941e-005  1.6632851e-007            
7.2375875e-005  1.6622174e-007            
7.2575808e-005  1.659933e-007            
7.2775741e-005  1.6571357e-007            
7.2975675e-005  1.6565238e-007            
7.3175608e-005  1.6553966e-007            
7.3375541e-005  1.6559908e-007            
7.3575475e-005  1.6535655e-007            
7.3775408e-005  1.6481976e-007            
7.3975342e-005  1.6439552e-007            
7.4175275e-005  1.645367e-007            
7.4375208e-005  1.646015e-007            
7.4575142e-005  1.645593e-007            
7.4775075e-005  1.6412136e-007            
7.4975008e-005  1.6353955e-007            
7.5174942e-005  1.6328643e-007            
7.5374875e-005  1.6329035e-007            
7.5574808e-005  1.6299556e-007            
7.5774742e-005  1.6257241e-007            
7.5974675e-005  1.622827e-007            
7.6174608e-005  1.6188696e-007            
7.6374542e-005  1.614627e-007            
7.6574475e-005  1.608495e-007            
7.6774408e-005  1.6066197e-007            
7.6974342e-005  1.6049645e-007            
7.7174275e-005  1.6003434e-007            
7.7374209e-005  1.591734e-007            
7.7574142e-005  1.585964e-007            
7.7774075e-005  1.5855916e-007            
7.7974009e-005  1.5856857e-007            
7.8173942e-005  1.5810548e-007            
7.8373875e-005  1.5733671e-007            
7.8573809e-005  1.5672166e-007            
7.8773742e-005  1.5640526e-007            
7.8973675e-005  1.5616315e-007            
7.9173609e-005  1.5591157e-007            
7.9373542e-005  1.5568335e-007            
7.9573475e-005  1.5537047e-007            
7.9773409e-005  1.549471e-007            
7.9973342e-005  1.5439412e-007            
8.0173276e-005  1.5415603e-007            
8.0373209e-005  1.5424246e-007            
8.0573142e-005  1.541288e-007            
8.0773076e-005  1.5355581e-007            
8.0973009e-005  1.5283169e-007            
8.1172942e-005  1.5232585e-007            
8.1372876e-005  1.5221886e-007            
8.1572809e-005  1.520898e-007            
8.1772742e-005  1.5138777e-007            
8.1972676e-005  1.5060537e-007            
8.2172609e-005  1.5000946e-007            
8.2372542e-005  1.4945207e-007            
8.2572476e-005  1.4884065e-007            
8.2772409e-005  1.4823001e-007            
8.2972343e-005  1.4757503e-007            
8.3172276e-005  1.468919e-007            
8.3372209e-005  1.4608948e-007            
8.3572143e-005  1.4518236e-007            
8.3772076e-005  1.4434577e-007            
8.3972009e-005  1.438503e-007            
8.4171943e-005  1.4333595e-007            
8.4371876e-005  1.4255122e-007            
8.4571809e-005  1.4173682e-007            
8.4771743e-005  1.4081685e-007            
8.4971676e-005  1.401755e-007            
8.5171609e-005  1.3953905e-007            
8.5371543e-005  1.3884719e-007            
8.5571476e-005  1.3807922e-007            
8.5771409e-005  1.3725915e-007            
8.5971343e-005  1.3643746e-007            
8.6171276e-005  1.3575108e-007            
8.637121e-005  1.3488083e-007            
8.6571143e-005  1.3400147e-007            
8.6771076e-005  1.3333356e-007            
8.697101e-005  1.3262071e-007            
8.7170943e-005  1.3196994e-007            
8.7370876e-005  1.31317e-007            
8.757081e-005  1.3068243e-007            
8.7770743e-005  1.3030739e-007            
8.7970676e-005  1.2987896e-007            
8.817061e-005  1.2920064e-007            
8.8370543e-005  1.2844054e-007            
8.8570476e-005  1.2761377e-007            
8.877041e-005  1.2705714e-007            
8.8970343e-005  1.2655882e-007            
8.9170277e-005  1.2598797e-007            
8.937021e-005  1.2542275e-007            
8.9570143e-005  1.2466139e-007            
8.9770077e-005  1.2378837e-007            
8.997001e-005  1.2315614e-007            
9.0169943e-005  1.2247071e-007            
9.0369877e-005  1.2196095e-007            
9.056981e-005  1.2116678e-007            
9.0769743e-005  1.2027036e-007            
9.0969677e-005  1.1944258e-007            
9.116961e-005  1.1881738e-007            
9.1369543e-005  1.1828525e-007            
9.1569477e-005  1.1755756e-007            
9.176941e-005  1.1666641e-007            
9.1969344e-005  1.1580194e-007            
9.2169277e-005  1.149935e-007            
9.236921e-005  1.1413647e-007            
9.2569144e-005  1.1326441e-007            
9.2769077e-005  1.1258551e-007            
9.296901e-005  1.119299e-007            
